Data from chem14_Transmission_13-52-16-202.txt Node
Date: Mon Dec 20 13:52:16 EST 2021
User: rbelisle
Spectrometer: USB2+H08074
Trigger mode: 0
Integration Time (sec): 5.000000E-2
Scans to average: 10
Electric dark correction enabled: true
Nonlinearity correction enabled: false
Boxcar width: 6
XAxis mode: Wavelengths
Number of Pixels in Spectrum: 2048
>>>>>Begin Spectral Data<<<<<
189.124	30.34
189.584	5.43
190.044	-86.6
190.504	-81.94
190.964	-335.1
191.424	1823.85
191.884	899.39
192.343	3548.52
192.803	-2781.67
193.263	328.72
193.722	719.21
194.182	-66.77
194.642	-6.68
195.101	-159.16
195.561	302.04
196.02	-1504.93
196.479	-33.34
196.939	63.06
197.398	134.4
197.858	193.46
198.317	321.52
198.776	174.19
199.235	104.45
199.695	80.92
200.154	83.32
200.613	74.75
201.072	72.14
201.531	66.46
201.99	73.23
202.449	81.66
202.908	93.43
203.367	93.51
203.826	89.64
204.285	91.82
204.744	91.96
205.202	92.96
205.661	87.05
206.12	86.53
206.579	87.89
207.037	97.78
207.496	94.1
207.955	98.52
208.413	98.3
208.872	95.12
209.33	90.36
209.789	92.66
210.247	91.82
210.705	89.54
211.164	84.51
211.622	89.97
212.08	98.91
212.539	96.81
212.997	89.9
213.455	96.95
213.913	102.5
214.371	103.66
214.829	100.21
215.287	100.35
215.745	98.13
216.203	97.35
216.661	88.14
217.119	80.98
217.577	76.46
218.035	81.08
218.493	83.73
218.95	85.06
219.408	86.55
219.866	83.62
220.324	92.27
220.781	97.22
221.239	96.95
221.696	98.5
222.154	101.15
222.611	108.64
223.069	105.06
223.526	103.27
223.984	90.76
224.441	94.65
224.898	93.6
225.355	91.18
225.813	94.47
226.27	97.65
226.727	101.45
227.184	107.47
227.641	108.49
228.098	113.66
228.555	111.23
229.012	100.1
229.469	96.09
229.926	93.58
230.383	91.24
230.84	85.98
231.297	86.28
231.754	85.71
232.21	87.09
232.667	80.38
233.124	76.17
233.58	76.81
234.037	71.59
234.494	77.03
234.95	84.58
235.407	87.83
235.863	96.81
236.32	92.17
236.776	95.08
237.232	100.76
237.689	97.41
238.145	98.54
238.601	94.21
239.057	92.95
239.514	93.27
239.97	89.3
240.426	94.41
240.882	92.41
241.338	89.84
241.794	102.86
242.25	104.22
242.706	101.09
243.162	101.66
243.618	105.37
244.074	100.35
244.529	100.08
244.985	102.46
245.441	107.62
245.897	106.88
246.352	108.96
246.808	106.86
247.263	114.94
247.719	116.81
248.174	118.46
248.63	113.27
249.085	111.3
249.541	113.47
249.996	112.86
250.451	111.18
250.907	105.82
251.362	95.14
251.817	91.64
252.272	96.89
252.728	94.21
253.183	99
253.638	100.51
254.093	101.92
254.548	106.54
255.003	110.62
255.458	106.16
255.913	97.54
256.367	86.88
256.822	88.95
257.277	94.4
257.732	95.98
258.187	98.39
258.641	98.24
259.096	103.77
259.55	111.27
260.005	112.79
260.46	102.55
260.914	98
261.369	94.61
261.823	101.54
262.277	104.27
262.732	94.68
263.186	97.08
263.64	97.5
264.095	103.12
264.549	105.12
265.003	101.43
265.457	92.52
265.911	91.01
266.365	83.65
266.819	79.91
267.273	84.24
267.727	75.79
268.181	73.01
268.635	72.28
269.089	73.58
269.543	78.9
269.997	79.68
270.45	75.76
270.904	77.65
271.358	89.89
271.811	97.55
272.265	99.49
272.718	94.2
273.172	88.48
273.625	103.42
274.079	93.84
274.532	88.96
274.986	84.59
275.439	83.42
275.892	82.52
276.346	81.35
276.799	76.85
277.252	84
277.705	82
278.158	91.38
278.611	87.51
279.064	89.1
279.517	89.38
279.97	93.28
280.423	94.6
280.876	94.89
281.329	94.36
281.782	99.04
282.235	96.88
282.687	93.03
283.14	93.75
283.593	96.2
284.045	89.22
284.498	81.02
284.95	82.3
285.403	88.9
285.855	95.46
286.308	90.04
286.76	91.71
287.213	88.73
287.665	96.47
288.117	103.79
288.57	100.93
289.022	101.05
289.474	101.82
289.926	99.88
290.378	108.94
290.83	110.52
291.282	106.8
291.734	100.95
292.186	93.05
292.638	95.44
293.09	96.53
293.542	89.45
293.994	87.02
294.446	90.58
294.897	94.11
295.349	99.86
295.801	95.25
296.252	92.8
296.704	98.46
297.156	99.24
297.607	97.48
298.059	97.93
298.51	96.76
298.961	100.14
299.413	103.03
299.864	98.66
300.315	98.36
300.767	101.98
301.218	98.56
301.669	90.93
302.12	91.89
302.571	83.3
303.022	90.09
303.473	91.69
303.924	89.66
304.375	87.63
304.826	90.27
305.277	87.42
305.728	93.69
306.179	90.82
306.629	84.3
307.08	84.24
307.531	87.74
307.982	90.69
308.432	91.25
308.883	90.82
309.333	87.7
309.784	88.69
310.234	94.6
310.685	100.72
311.135	94.17
311.585	95.78
312.036	94.74
312.486	97.41
312.936	96.93
313.386	90.37
313.837	87.4
314.287	87.23
314.737	89.06
315.187	92.12
315.637	90.15
316.087	92.34
316.537	99.33
316.987	98.02
317.436	96.62
317.886	98
318.336	91.46
318.786	101.38
319.235	96.73
319.685	93.03
320.135	91.61
320.584	93.32
321.034	96.26
321.483	96.88
321.933	91.03
322.382	86.83
322.832	88.85
323.281	90.48
323.73	86.87
324.18	82.7
324.629	97.36
325.078	99.22
325.527	95.67
325.976	66.46
326.425	64.21
326.874	69.05
327.323	64.8
327.772	68.02
328.221	68.14
328.67	69.43
329.119	103.16
329.568	99.53
330.017	94.09
330.465	76.13
330.914	71.14
331.363	71.72
331.811	70.08
332.26	66.71
332.708	67
333.157	64.89
333.605	66.76
334.054	67.45
334.502	69.7
334.951	68.28
335.399	70.61
335.847	67.45
336.295	68.35
336.744	69.23
337.192	67.1
337.64	62.23
338.088	61.04
338.536	58.46
338.984	59.07
339.432	58.16
339.88	58.06
340.328	59.13
340.776	58.83
341.223	58.76
341.671	60.19
342.119	58.91
342.566	58.77
343.014	58.11
343.462	56.75
343.909	57.03
344.357	57.15
344.804	55.64
345.252	56
345.699	53.53
346.147	51.67
346.594	51.61
347.041	50.14
347.488	49.61
347.936	49.46
348.383	47.92
348.83	48.32
349.277	49.02
349.724	48.39
350.171	48.56
350.618	47.9
351.065	47.51
351.512	48.37
351.959	47.93
352.406	47
352.852	47.55
353.299	47.68
353.746	48.75
354.192	47.81
354.639	47.09
355.086	46.41
355.532	46.41
355.979	45.68
356.425	46.24
356.872	46.03
357.318	45.79
357.764	45.74
358.211	45.86
358.657	44.95
359.103	44.42
359.549	44.01
359.995	44.29
360.442	44.51
360.888	44.23
361.334	44.1
361.78	44.26
362.226	43.68
362.672	43.51
363.117	42.63
363.563	42.61
364.009	42.44
364.455	42.93
364.9	43.03
365.346	42.91
365.792	42.89
366.237	42.29
366.683	42.36
367.128	42.34
367.574	42.08
368.019	42.04
368.465	42.22
368.91	42.21
369.355	42.29
369.801	41.95
370.246	41.42
370.691	41.02
371.136	40.79
371.581	40.95
372.026	41.18
372.471	41.15
372.916	41.28
373.361	41.36
373.806	41.53
374.251	41.51
374.696	40.77
375.141	40.52
375.585	40.45
376.03	40.59
376.475	40.79
376.919	41.1
377.364	41.37
377.809	41.22
378.253	41.36
378.697	41.23
379.142	41.27
379.586	41.39
380.031	41.03
380.475	41.12
380.919	41.25
381.363	41.27
381.808	41.42
382.252	41.41
382.696	41.18
383.14	41.32
383.584	41.58
384.028	41.62
384.472	41.41
384.916	41.2
385.36	41.13
385.803	40.96
386.247	40.86
386.691	40.75
387.135	40.65
387.578	40.83
388.022	40.98
388.465	40.9
388.909	40.94
389.352	41.08
389.796	41.11
390.239	41.11
390.683	41.04
391.126	40.94
391.569	40.99
392.012	41.04
392.456	41.07
392.899	41.27
393.342	41.31
393.785	41.21
394.228	41.25
394.671	41.38
395.114	41.36
395.557	41.44
396	41.13
396.443	41.15
396.885	41.17
397.328	41.74
397.771	41.79
398.214	41.88
398.656	41.8
399.099	41.86
399.541	41.77
399.984	42.09
400.426	42.18
400.869	42.23
401.311	42.37
401.753	42.52
402.196	42.44
402.638	42.4
403.08	41.58
403.522	40.85
403.964	40.32
404.406	40.09
404.849	40.17
405.291	40.36
405.733	40.71
406.174	41.23
406.616	41.82
407.058	42.38
407.5	42.51
407.942	42.7
408.383	42.85
408.825	42.95
409.267	43.04
409.708	43.21
410.15	43.12
410.591	43.26
411.033	43.27
411.474	43.27
411.916	43.28
412.357	43.27
412.798	43.26
413.24	43.26
413.681	43.24
414.122	43.32
414.563	43.32
415.004	43.44
415.445	43.39
415.886	43.51
416.327	43.45
416.768	43.63
417.209	43.73
417.65	43.8
418.091	43.74
418.531	43.85
418.972	43.86
419.413	44.11
419.853	44.29
420.294	44.51
420.735	44.3
421.175	44.47
421.615	44.5
422.056	44.53
422.496	44.44
422.937	44.35
423.377	44.43
423.817	44.73
424.257	44.99
424.698	45.05
425.138	45.17
425.578	45.09
426.018	45.16
426.458	44.98
426.898	45.03
427.338	45.16
427.778	45.41
428.217	45.55
428.657	45.69
429.097	45.64
429.537	45.77
429.976	45.63
430.416	45.67
430.855	45.72
431.295	45.5
431.734	45.57
432.174	45.72
432.613	45.88
433.053	45.87
433.492	45.53
433.931	44.2
434.371	42.18
434.81	39.72
435.249	37.94
435.688	37.17
436.127	37.14
436.566	37.71
437.005	39.4
437.444	41.8
437.883	44.29
438.322	45.86
438.761	46.47
439.199	46.94
439.638	47.02
440.077	46.99
440.515	46.94
440.954	47.03
441.393	47.05
441.831	47.25
442.27	47.32
442.708	47.32
443.146	47.58
443.585	47.75
444.023	48
444.461	48.09
444.899	48.06
445.338	48.15
445.776	48.31
446.214	48.36
446.652	48.59
447.09	48.41
447.528	48.55
447.966	48.7
448.404	49
448.841	49.14
449.279	48.98
449.717	48.83
450.155	49.1
450.592	49.37
451.03	49.55
451.467	49.72
451.905	49.75
452.343	49.88
452.78	50.18
453.217	50.38
453.655	50.14
454.092	50.18
454.529	50.26
454.966	50.62
455.404	50.8
455.841	50.81
456.278	50.85
456.715	51.09
457.152	51.47
457.589	51.63
458.026	51.86
458.463	52.04
458.9	52.38
459.336	52.58
459.773	52.72
460.21	52.73
460.646	52.79
461.083	52.75
461.52	53.05
461.956	53.46
462.393	53.88
462.829	53.97
463.265	54.13
463.702	54.33
464.138	54.46
464.574	54.55
465.011	54.4
465.447	54.5
465.883	54.68
466.319	55.02
466.755	55.31
467.191	55.56
467.627	55.53
468.063	55.81
468.499	55.8
468.935	55.89
469.37	56.05
469.806	56.06
470.242	56.17
470.678	56.25
471.113	56.52
471.549	56.92
471.984	57.25
472.42	57.49
472.855	57.66
473.291	57.83
473.726	58.12
474.161	58.25
474.596	58.28
475.032	58.12
475.467	58.44
475.902	58.55
476.337	58.85
476.772	58.94
477.207	59.07
477.642	59.32
478.077	59.61
478.512	59.55
478.947	59.63
479.381	59.61
479.816	59.74
480.251	59.83
480.686	60.11
481.12	60.02
481.555	60.13
481.989	60.19
482.424	60.6
482.858	60.78
483.292	60.88
483.727	60.9
484.161	60.97
484.595	61.25
485.03	61.46
485.464	61.49
485.898	61.55
486.332	61.6
486.766	61.83
487.2	62.22
487.634	62.4
488.068	62.53
488.502	62.55
488.935	62.72
489.369	62.88
489.803	63.12
490.236	63.22
490.67	63.41
491.104	63.72
491.537	64.01
491.971	64.31
492.404	64.54
492.838	64.6
493.271	64.75
493.704	64.93
494.137	65.17
494.571	65.57
495.004	65.83
495.437	66.15
495.87	66.4
496.303	66.57
496.736	66.67
497.169	66.77
497.602	66.77
498.035	66.9
498.468	67.09
498.9	67.33
499.333	67.5
499.766	67.8
500.198	68.03
500.631	68.33
501.064	68.74
501.496	68.94
501.929	69.39
502.361	69.74
502.793	70.09
503.226	70.3
503.658	70.34
504.09	70.42
504.522	70.56
504.955	70.73
505.387	70.98
505.819	71.23
506.251	71.44
506.683	71.64
507.115	71.85
507.546	72.16
507.978	72.39
508.41	72.47
508.842	72.66
509.273	72.98
509.705	73.37
510.137	73.64
510.568	73.74
511	74.02
511.431	74.22
511.863	74.34
512.294	74.45
512.725	74.55
513.157	74.62
513.588	74.76
514.019	75.04
514.45	75.37
514.881	75.66
515.312	75.96
515.743	76.16
516.174	76.4
516.605	76.48
517.036	76.58
517.467	76.75
517.898	77
518.328	77.24
518.759	77.59
519.19	77.79
519.62	78
520.051	78.16
520.481	78.38
520.912	78.43
521.342	78.53
521.773	78.75
522.203	78.97
522.633	79.25
523.064	79.42
523.494	79.41
523.924	79.6
524.354	79.65
524.784	79.81
525.214	79.94
525.644	79.97
526.074	80.2
526.504	80.46
526.934	80.73
527.363	81
527.793	81.02
528.223	81.24
528.652	81.38
529.082	81.53
529.512	81.55
529.941	81.68
530.371	81.81
530.8	81.94
531.229	82.06
531.659	82.2
532.088	82.43
532.517	82.55
532.946	82.41
533.375	82.6
533.805	82.83
534.234	82.95
534.663	83.05
535.091	83.1
535.52	83.25
535.949	83.53
536.378	83.62
536.807	83.82
537.236	84.03
537.664	84.28
538.093	84.43
538.521	84.45
538.95	84.44
539.378	84.58
539.807	84.59
540.235	84.54
540.664	84.38
541.092	84.36
541.52	84.38
541.948	84.52
542.376	84.61
542.805	84.5
543.233	84.48
543.661	84.6
544.089	84.93
544.517	85.12
544.944	85.22
545.372	85.5
545.8	85.89
546.228	86.36
546.655	86.68
547.083	86.78
547.511	87.01
547.938	87.16
548.366	87.21
548.793	87.34
549.221	87.42
549.648	87.51
550.075	87.67
550.503	87.73
550.93	87.88
551.357	88.25
551.784	88.33
552.211	88.41
552.638	88.48
553.065	88.62
553.492	88.85
553.919	88.95
554.346	88.98
554.773	89.04
555.2	89.34
555.626	89.58
556.053	89.77
556.479	89.66
556.906	89.65
557.333	89.8
557.759	90.02
558.185	90.05
558.612	90.19
559.038	90.19
559.464	90.28
559.891	90.43
560.317	90.36
560.743	90.42
561.169	90.57
561.595	90.71
562.021	90.9
562.447	91.1
562.873	91.26
563.299	91.54
563.725	91.52
564.15	91.64
564.576	91.75
565.002	91.97
565.427	92.14
565.853	92.27
566.279	92.23
566.704	92.32
567.13	92.38
567.555	92.56
567.98	92.62
568.406	92.59
568.831	92.67
569.256	92.87
569.681	92.87
570.106	92.91
570.531	92.85
570.956	92.8
571.381	93.14
571.806	93.3
572.231	93.5
572.656	93.55
573.081	93.56
573.505	93.75
573.93	93.79
574.355	93.82
574.779	93.76
575.204	93.71
575.628	93.88
576.053	94.02
576.477	94.09
576.901	94.11
577.326	94.03
577.75	94.27
578.174	94.36
578.598	94.39
579.022	94.42
579.446	94.48
579.87	94.65
580.294	94.69
580.718	94.61
581.142	94.6
581.566	94.7
581.99	94.85
582.413	95.05
582.837	95.16
583.261	95.33
583.684	95.49
584.108	95.63
584.531	95.48
584.955	95.41
585.378	95.35
585.801	95.41
586.225	95.4
586.648	95.46
587.071	95.63
587.494	95.88
587.917	95.91
588.34	95.97
588.763	95.79
589.186	95.78
589.609	95.7
590.032	95.83
590.455	95.85
590.878	95.84
591.3	95.74
591.723	95.79
592.145	95.66
592.568	95.77
592.991	95.72
593.413	95.78
593.835	95.77
594.258	95.97
594.68	96.1
595.102	96.16
595.525	95.91
595.947	95.89
596.369	95.95
596.791	96.02
597.213	96.17
597.635	96.35
598.057	96.47
598.479	96.41
598.901	96.52
599.322	96.52
599.744	96.49
600.166	96.52
600.587	96.48
601.009	96.64
601.431	96.9
601.852	96.92
602.273	96.96
602.695	97.09
603.116	97.2
603.537	97.33
603.959	97.32
604.38	97.4
604.801	97.41
605.222	97.59
605.643	97.54
606.064	97.49
606.485	97.36
606.906	97.52
607.327	97.7
607.748	97.89
608.168	98.07
608.589	98.2
609.01	98.24
609.43	98.23
609.851	98.05
610.272	97.85
610.692	97.67
611.112	97.6
611.533	97.57
611.953	97.57
612.373	97.67
612.794	97.84
613.214	97.9
613.634	97.96
614.054	98.06
614.474	98.14
614.894	98.22
615.314	98.38
615.734	98.55
616.153	98.42
616.573	98.38
616.993	98.33
617.413	98.34
617.832	98.43
618.252	98.4
618.671	98.3
619.091	98.28
619.51	98.29
619.93	98.48
620.349	98.41
620.768	98.41
621.187	98.45
621.607	98.51
622.026	98.55
622.445	98.71
622.864	98.63
623.283	98.63
623.702	98.59
624.121	98.68
624.54	98.71
624.958	98.54
625.377	98.5
625.796	98.55
626.214	98.71
626.633	98.8
627.051	98.64
627.47	98.6
627.888	98.66
628.307	98.51
628.725	98.44
629.143	98.19
629.562	98.06
629.98	98.18
630.398	98.34
630.816	98.52
631.234	98.85
631.652	98.97
632.07	99.12
632.488	99.2
632.906	99.23
633.323	99.25
633.741	99.26
634.159	99.21
634.576	99.28
634.994	99.45
635.412	99.51
635.829	99.52
636.247	99.54
636.664	99.56
637.081	99.53
637.499	99.37
637.916	99.41
638.333	99.5
638.75	99.52
639.167	99.34
639.584	99.13
640.001	99.11
640.418	98.97
640.835	98.83
641.252	98.5
641.669	98.45
642.085	98.59
642.502	98.76
642.919	98.9
643.335	98.88
643.752	99.02
644.168	99.41
644.585	99.58
645.001	99.68
645.417	99.42
645.834	99.28
646.25	99.2
646.666	99.19
647.082	99.2
647.498	99.04
647.914	99.07
648.33	99.37
648.746	99.5
649.162	99.6
649.578	99.47
649.994	99.35
650.409	99.47
650.825	99.63
651.241	99.8
651.656	99.8
652.072	99.87
652.487	99.95
652.903	100.01
653.318	99.83
653.733	99.61
654.149	99.47
654.564	99.4
654.979	99.51
655.394	99.48
655.809	99.61
656.224	99.67
656.639	99.66
657.054	99.69
657.469	99.5
657.884	99.44
658.298	99.44
658.713	99.46
659.128	99.79
659.542	99.93
659.957	99.96
660.371	99.84
660.786	99.73
661.2	99.53
661.615	99.31
662.029	98.9
662.443	98.68
662.857	98.84
663.272	99.25
663.686	99.5
664.1	99.79
664.514	99.82
664.928	99.78
665.341	99.69
665.755	99.59
666.169	99.44
666.583	99.52
666.996	99.59
667.41	99.76
667.824	99.62
668.237	99.57
668.651	99.52
669.064	99.55
669.478	99.46
669.891	99.38
670.304	99.37
670.717	99.57
671.13	99.84
671.544	100.21
671.957	100.31
672.37	100.6
672.783	100.7
673.196	100.85
673.608	100.75
674.021	100.5
674.434	100.36
674.847	100.57
675.259	100.6
675.672	100.6
676.084	100.72
676.497	101
676.909	100.96
677.322	100.75
677.734	100.38
678.146	100.31
678.559	100.51
678.971	100.74
679.383	100.76
679.795	100.83
680.207	100.76
680.619	100.95
681.031	100.85
681.443	100.76
681.855	100.86
682.267	101.2
682.678	101.35
683.09	101.65
683.502	101.46
683.913	101.43
684.325	101.29
684.736	101.14
685.147	100.95
685.559	101
685.97	101.15
686.381	101.24
686.793	101.34
687.204	101.44
687.615	101.52
688.026	101.95
688.437	102.07
688.848	101.83
689.259	101.72
689.67	101.49
690.08	101.31
690.491	101.24
690.902	101.23
691.312	101.5
691.723	101.71
692.133	102.06
692.544	102.2
692.954	102.11
693.365	101.82
693.775	101.24
694.185	100.98
694.596	101.11
695.006	101.48
695.416	101.75
695.826	101.93
696.236	102.14
696.646	102.38
697.056	102.46
697.466	102.39
697.875	102.12
698.285	102.15
698.695	102.1
699.104	102.06
699.514	101.99
699.923	101.92
700.333	102.23
700.742	102.44
701.152	102.68
701.561	102.78
701.97	103.03
702.38	103.37
702.789	103.45
703.198	103.11
703.607	102.83
704.016	102.83
704.425	102.94
704.834	103.07
705.243	103.19
705.651	103.19
706.06	103.39
706.469	103.63
706.877	103.79
707.286	103.93
707.694	104.36
708.103	104.73
708.511	104.95
708.92	105.36
709.328	105.59
709.736	105.82
710.144	106.03
710.553	106.17
710.961	106.08
711.369	105.75
711.777	105.39
712.185	105.37
712.593	105.46
713	105.51
713.408	105.47
713.816	105.63
714.224	105.55
714.631	105.96
715.039	105.77
715.446	105.79
715.854	105.51
716.261	105.73
716.669	106.31
717.076	107.06
717.483	107.46
717.89	107.9
718.297	108.2
718.705	108.57
719.112	108.07
719.519	107.52
719.925	106.77
720.332	106.52
720.739	106.54
721.146	106.91
721.553	107.26
721.959	107.54
722.366	107.88
722.773	108.15
723.179	108.33
723.585	108.01
723.992	107.41
724.398	107.4
724.804	107.59
725.211	107.86
725.617	107.98
726.023	108.16
726.429	108.47
726.835	108.8
727.241	108.78
727.647	108.69
728.053	108.69
728.459	108.58
728.864	108.24
729.27	108.01
729.676	107.84
730.081	107.94
730.487	108
730.892	107.74
731.298	107.84
731.703	108.17
732.108	108.05
732.514	108.16
732.919	107.74
733.324	107.67
733.729	107.95
734.134	108.24
734.539	108.22
734.944	108.08
735.349	108.09
735.754	108.56
736.159	108.82
736.563	108.95
736.968	108.77
737.373	109.14
737.777	109.12
738.182	109.15
738.586	108.54
738.991	108.1
739.395	107.71
739.799	107.19
740.204	106.88
740.608	106.74
741.012	106.9
741.416	106.97
741.82	106.82
742.224	106.76
742.628	106.65
743.032	107
743.436	106.98
743.839	106.77
744.243	106.69
744.647	106.79
745.05	107.03
745.454	106.5
745.857	105.97
746.261	105.79
746.664	106
747.067	106.32
747.471	106.18
747.874	106.3
748.277	106.56
748.68	106.99
749.083	107.12
749.486	106.89
749.889	106.75
750.292	106.61
750.695	106.7
751.098	106.74
751.5	106.39
751.903	106.42
752.306	106.34
752.708	106.6
753.111	107
753.513	107.48
753.915	107.87
754.318	108.53
754.72	108.62
755.122	108.73
755.524	108.37
755.927	107.84
756.329	107.24
756.731	106.71
757.133	106.25
757.534	106.01
757.936	106.17
758.338	106.67
758.74	107.21
759.141	107.54
759.543	107.82
759.945	108.01
760.346	108.14
760.748	107.95
761.149	107.83
761.55	107.31
761.952	107.06
762.353	107.01
762.754	107.04
763.155	106.95
763.556	107.1
763.957	106.92
764.358	106.75
764.759	106.55
765.16	106.57
765.561	106.33
765.962	106.3
766.362	106.23
766.763	106.45
767.163	107.06
767.564	107.58
767.964	107.56
768.365	107.17
768.765	106.62
769.165	106.38
769.566	106.11
769.966	105.44
770.366	104.98
770.766	104.65
771.166	104.87
771.566	105.2
771.966	105.46
772.366	105.61
772.766	105.95
773.165	106.21
773.565	106.43
773.965	106.56
774.364	106.59
774.764	106.38
775.163	106.2
775.563	106.18
775.962	106.24
776.361	106.34
776.761	106.06
777.16	105.6
777.559	105.28
777.958	105.54
778.357	105.95
778.756	106.17
779.155	105.89
779.554	105.91
779.952	106.04
780.351	106.24
780.75	105.93
781.149	105.47
781.547	104.86
781.946	104.96
782.344	105.02
782.742	104.97
783.141	104.54
783.539	104.21
783.937	103.99
784.336	104.48
784.734	104.84
785.132	105.07
785.53	105.07
785.928	105.05
786.326	105.3
786.723	105.45
787.121	105.35
787.519	105.1
787.917	105
788.314	105.22
788.712	105.68
789.109	105.78
789.507	105.76
789.904	105.74
790.302	106.03
790.699	105.96
791.096	105.46
791.493	104.86
791.89	104.74
792.287	104.73
792.684	104.53
793.081	104.04
793.478	103.91
793.875	104.1
794.272	104.41
794.669	104.53
795.065	104.51
795.462	104.4
795.858	104.45
796.255	104.35
796.651	104.17
797.048	103.84
797.444	103.5
797.84	103.35
798.237	103.28
798.633	103.33
799.029	103.23
799.425	102.89
799.821	102.78
800.217	102.98
800.613	103.22
801.008	103.34
801.404	103.45
801.8	103.86
802.196	104.21
802.591	104.67
802.987	104.81
803.382	105.04
803.778	105.26
804.173	105.15
804.568	104.9
804.963	104.4
805.359	104.01
805.754	103.77
806.149	103.66
806.544	103.69
806.939	103.6
807.334	103.58
807.729	103.92
808.123	103.9
808.518	103.57
808.913	102.96
809.307	102.4
809.702	102.21
810.096	101.98
810.491	101.87
810.885	101.94
811.28	102.28
811.674	102.62
812.068	102.97
812.462	103.57
812.856	103.87
813.251	103.85
813.645	103.59
814.038	103.38
814.432	103.35
814.826	103.13
815.22	102.8
815.614	102.6
816.007	102.55
816.401	102.6
816.794	102.39
817.188	102.44
817.581	102.48
817.975	102.05
818.368	101.85
818.761	101.92
819.154	102.19
819.548	102.4
819.941	102.19
820.334	101.96
820.727	101.85
821.12	101.93
821.512	101.79
821.905	101.59
822.298	101.47
822.691	101.74
823.083	101.94
823.476	102.23
823.868	102.52
824.261	102.99
824.653	103.16
825.045	103.01
825.438	102.42
825.83	101.84
826.222	101.19
826.614	100.72
827.006	100.51
827.398	100.67
827.79	101.31
828.182	102.2
828.574	103.1
828.966	103.55
829.357	104.21
829.749	104.4
830.14	104.24
830.532	103.81
830.923	103.37
831.315	102.8
831.706	102.3
832.097	101.85
832.489	101.52
832.88	101.15
833.271	101.09
833.662	101.37
834.053	101.77
834.444	102.03
834.835	102.09
835.226	102.06
835.616	101.9
836.007	101.89
836.398	101.55
836.788	101.18
837.179	101.02
837.569	101.18
837.96	101.17
838.35	100.9
838.741	100.61
839.131	100.8
839.521	100.86
839.911	101.14
840.301	101.28
840.691	101.59
841.081	102.09
841.471	102.48
841.861	102.76
842.251	103.05
842.64	103.21
843.03	103.16
843.42	102.65
843.809	102.04
844.199	101.64
844.588	101.38
844.977	101.1
845.367	101.03
845.756	101.47
846.145	102.19
846.534	103.12
846.923	103.78
847.312	103.79
847.701	103.66
848.09	103.25
848.479	102.51
848.868	102.01
849.257	101.73
849.645	101.34
850.034	100.95
850.422	100.5
850.811	100.44
851.199	100.5
851.588	100.4
851.976	100.11
852.364	100.15
852.753	100.51
853.141	100.88
853.529	100.97
853.917	101.05
854.305	101.35
854.693	101.92
855.08	102.29
855.468	102.08
855.856	101.95
856.244	102.46
856.631	102.57
857.019	102.36
857.406	101.71
857.794	101.54
858.181	101.62
858.568	102.25
858.956	102.6
859.343	102.77
859.73	103.03
860.117	103.75
860.504	104.08
860.891	103.71
861.278	102.6
861.665	101.62
862.052	101.29
862.438	101.39
862.825	100.96
863.212	99.92
863.598	99.31
863.985	99.49
864.371	99.99
864.757	100.14
865.144	99.67
865.53	99.16
865.916	99.46
866.302	99.97
866.688	100.08
867.074	99.83
867.46	99.32
867.846	98.69
868.232	98.43
868.618	98.23
869.004	98.11
869.389	97.97
869.775	97.96
870.16	98.38
870.546	99.44
870.931	100.78
871.317	101.64
871.702	101.87
872.087	101.55
872.472	101.24
872.857	100.9
873.242	100.05
873.627	99.19
874.012	98.6
874.397	98.82
874.782	99.61
875.167	100.41
875.552	100.82
875.936	101.16
876.321	101.46
876.705	101.82
877.09	101.91
877.474	101.7
877.858	101.35
878.243	101.49
878.627	101.56
879.011	101.62
879.395	101.26
879.779	100.38
880.163	100.05
880.547	100.01
880.931	99.92
881.315	99.77
881.699	99.43
882.082	99.46
882.466	99.36
882.849	99.14
883.233	98.72
883.616	98.27
884	98.27
884.383	98.45
884.766	98.73
885.15	99.26
885.533	99.51
885.916	100.4
886.299	100.93
886.682	101.36
887.065	101.07
887.448	100.44
887.83	99.68
888.213	99.29
888.596	98.64
888.978	98.13
889.361	97.61
889.743	97.75
890.126	98.01
890.508	98.67
890.89	99.56
891.273	100.59
891.655	100.94
892.037	101.01
892.419	101.08
892.801	101.16
893.183	100.74
893.565	100.06
893.947	99.29
894.328	99.06
894.71	99.21
895.092	99.28
895.473	99.14
895.855	99.07
896.236	98.89
896.618	99.05
896.999	99.43
897.38	100.05
897.761	100.88
898.143	101.44
898.524	101.58
898.905	101.71
899.286	101.88
899.666	101.37
900.047	100.63
900.428	99.77
900.809	99.23
901.19	98.53
901.57	98.31
901.951	97.86
902.331	97.59
902.712	97.31
903.092	97.36
903.472	97.7
903.852	98.12
904.233	98.31
904.613	98.83
904.993	99.2
905.373	99.76
905.753	99.95
906.133	99.94
906.512	99.75
906.892	99.29
907.272	98.83
907.651	98.53
908.031	98.09
908.41	97.57
908.79	96.74
909.169	96.09
909.549	95.84
909.928	96.11
910.307	96.65
910.686	97.47
911.065	97.76
911.444	98.19
911.823	99.2
912.202	100.13
912.581	100.13
912.96	100.07
913.338	99.81
913.717	100.18
914.096	100.28
914.474	99.9
914.853	98.86
915.231	97.78
915.609	96.61
915.988	95.79
916.366	95.51
916.744	95.29
917.122	95.32
917.5	96.04
917.878	97.02
918.256	98.14
918.634	99.3
919.012	99.92
919.389	100.72
919.767	100.95
920.145	100.91
920.522	101.18
920.9	100.75
921.277	100.07
921.654	99.61
922.032	98.63
922.409	97.84
922.786	96.93
923.163	95.9
923.54	95.4
923.917	95.32
924.294	95.4
924.671	95.4
925.048	95.95
925.425	96.79
925.801	98.07
926.178	98.82
926.554	99
926.931	99.58
927.307	100.61
927.684	100.92
928.06	100.52
928.436	99.7
928.812	98.75
929.188	98.11
929.565	97.39
929.941	96.56
930.316	95.85
930.692	95.37
931.068	94.84
931.444	94.47
931.82	93.68
932.195	93.34
932.571	93.49
932.946	94.35
933.322	95.69
933.697	97.33
934.072	98.43
934.448	99.43
934.823	99.79
935.198	99.5
935.573	98.92
935.948	97.41
936.323	96.93
936.698	96.36
937.073	95.97
937.447	95.86
937.822	96.26
938.197	96.53
938.571	97.32
938.946	98.18
939.32	99.04
939.694	100.58
940.069	102.23
940.443	102.89
940.817	103.35
941.191	103.27
941.565	102.6
941.939	102
942.313	101.79
942.687	101.04
943.061	99.95
943.435	99.76
943.808	99.29
944.182	98.41
944.556	97.32
944.929	96.33
945.303	94.84
945.676	93.93
946.049	93.4
946.422	93.83
946.796	94.82
947.169	96.74
947.542	97.83
947.915	99.61
948.288	100.1
948.661	100.52
949.033	100.13
949.406	99.73
949.779	99.21
950.151	98.47
950.524	97.84
950.897	97.41
951.269	96.54
951.641	96.06
952.014	95.25
952.386	94.54
952.758	93.97
953.13	94.09
953.502	94.25
953.874	95.19
954.246	96.46
954.618	97.54
954.99	98.22
955.361	98.25
955.733	98.61
956.105	99.49
956.476	99.91
956.848	99.77
957.219	99.44
957.591	98.82
957.962	98.57
958.333	98.59
958.704	97.85
959.075	96.86
959.446	96.8
959.817	96.68
960.188	96.4
960.559	95.6
960.93	95.1
961.301	95.03
961.671	95.53
962.042	95.68
962.412	96.22
962.783	97.17
963.153	97.64
963.524	97.91
963.894	98.14
964.264	98.59
964.634	99.24
965.004	99.67
965.374	99.94
965.744	99.99
966.114	99.45
966.484	98.49
966.854	96.92
967.224	95.33
967.593	94.33
967.963	93.94
968.332	93.33
968.702	93.6
969.071	93.51
969.44	94.17
969.81	95.22
970.179	95.86
970.548	96.94
970.917	97.95
971.286	98.94
971.655	100.33
972.024	101.49
972.393	101.93
972.761	102.24
973.13	101.41
973.499	100.53
973.867	98.83
974.236	97.19
974.604	95.74
974.973	94.61
975.341	94.18
975.709	93.82
976.077	93.93
976.445	94.23
976.813	94.37
977.181	94.94
977.549	95.36
977.917	95.33
978.285	95.95
978.653	96.53
979.02	97.48
979.388	97.88
979.755	97.44
980.123	97.58
980.49	98.06
980.858	98.5
981.225	98.2
981.592	98.22
981.959	98.35
982.326	98.87
982.693	98.46
983.06	97.9
983.427	97
983.794	96.03
984.161	94.66
984.528	94.21
984.894	93.25
985.261	93.44
985.627	94.06
985.994	94.83
986.36	96.07
986.726	97.6
987.093	98.92
987.459	99.77
987.825	100.36
988.191	100.34
988.557	100.49
988.923	100.63
989.289	100.31
989.654	100.28
990.02	99.75
990.386	98.64
990.751	98.59
991.117	98.32
991.482	97.41
991.848	96.16
992.213	95.24
992.578	94.99
992.944	95.48
993.309	95.47
993.674	95.1
994.039	95.56
994.404	96.22
994.769	96.85
995.134	97.39
995.498	97.55
995.863	97.53
996.228	98.07
996.592	99.21
996.957	100.16
997.321	100.97
997.685	101.19
998.05	100.29
998.414	99.43
998.778	98.51
999.142	97.22
999.506	95.82
999.87	94.17
1000.234	93.44
1000.598	93.49
1000.962	93.26
1001.326	92.7
1001.689	93.12
1002.053	93.94
1002.416	95.06
1002.78	95.54
1003.143	95.81
1003.506	96.76
1003.87	97.56
1004.233	98.22
1004.596	97.69
1004.959	97.83
1005.322	98.22
1005.685	98.01
1006.048	97.17
1006.411	96.32
1006.773	95.61
1007.136	95.4
1007.499	94.45
1007.861	93.47
1008.224	93.29
1008.586	92.56
1008.948	92.59
1009.311	92.21
1009.673	91.98
1010.035	92.5
1010.397	93.71
1010.759	94.6
1011.121	95.87
1011.483	96.84
1011.845	97.67
1012.207	98.16
1012.568	98.6
1012.93	99.06
1013.291	99.99
1013.653	99.73
1014.014	98.79
1014.376	97.96
1014.737	97.4
1015.098	95.99
1015.459	95.27
1015.82	94.12
1016.181	92.7
1016.542	92.76
1016.903	92.59
1017.264	92.36
1017.625	92.37
1017.986	91.5
1018.346	91.4
1018.707	91
1019.067	91.13
1019.428	91.65
1019.788	91.73
1020.148	93.3
1020.509	94.09
1020.869	95.28
1021.229	96.76
1021.589	96.89
1021.949	97.69
1022.309	98.03
1022.669	97.89
1023.028	97.83
1023.388	98.81
1023.748	99.02
1024.107	99.11
1024.467	98.79
1024.826	98.66
1025.186	98.42
1025.545	97.6
1025.904	96.31
1026.263	94.7
1026.623	93.58
1026.982	92.61
1027.341	91.14
1027.699	91.25
1028.058	89.88
1028.417	89.26
1028.776	90.14
1029.134	92.21
1029.493	93.38
1029.852	94.62
1030.21	96.46
1030.568	97.69
1030.927	98.39
1031.285	98.88
1031.643	99.23
1032.001	100.55
1032.359	101.97
1032.717	101.67
1033.075	101.62
1033.433	101.94
1033.791	102.04
1034.148	101.48
1034.506	100.74
1034.864	98.45
1035.221	98.86
1035.579	97.84
1035.936	96.87
1036.293	94.72
1036.651	92.97
1037.008	90.7
