Data from chem17_Transmission_13-55-23-186.txt Node
Date: Mon Dec 20 13:55:23 EST 2021
User: rbelisle
Spectrometer: USB2+H08074
Trigger mode: 0
Integration Time (sec): 5.000000E-2
Scans to average: 10
Electric dark correction enabled: true
Nonlinearity correction enabled: false
Boxcar width: 6
XAxis mode: Wavelengths
Number of Pixels in Spectrum: 2048
>>>>>Begin Spectral Data<<<<<
189.124	198.18
189.584	240.81
190.044	131.68
190.504	62.12
190.964	-4.22
191.424	883.09
191.884	532.24
192.343	1950.41
192.803	-1963.8
193.263	295.51
193.722	590.8
194.182	-116.55
194.642	-33.83
195.101	-254.73
195.561	253.03
196.02	-1100.55
196.479	-26.76
196.939	40.65
197.398	98.78
197.858	133.28
198.317	269.57
198.776	136.26
199.235	88.85
199.695	75.62
200.154	73
200.613	66.85
201.072	65.49
201.531	62.88
201.99	68.92
202.449	71.41
202.908	82.29
203.367	83.45
203.826	84.31
204.285	86.25
204.744	83.99
205.202	83.16
205.661	79.42
206.12	80.44
206.579	81.19
207.037	90.56
207.496	88.47
207.955	91.67
208.413	95.17
208.872	97.36
209.33	91.43
209.789	90.12
210.247	91.39
210.705	93.21
211.164	87.77
211.622	89.19
212.08	96.76
212.539	101.31
212.997	92.32
213.455	95.79
213.913	98.49
214.371	98.24
214.829	93.54
215.287	91.99
215.745	88.83
216.203	88.93
216.661	83.33
217.119	77.61
217.577	76.16
218.035	75.63
218.493	76.19
218.95	77.09
219.408	81.53
219.866	84.16
220.324	89.33
220.781	96.15
221.239	94.39
221.696	95.58
222.154	97.79
222.611	102.27
223.069	97.17
223.526	96.61
223.984	88.04
224.441	92.09
224.898	92.69
225.355	87.09
225.813	86.17
226.27	90.84
226.727	88.76
227.184	93.54
227.641	99.34
228.098	98.51
228.555	100.05
229.012	93.87
229.469	88.95
229.926	90.57
230.383	85.73
230.84	82.53
231.297	82.06
231.754	84.63
232.21	87.29
232.667	85.22
233.124	87.84
233.58	90.07
234.037	89.74
234.494	93.83
234.95	97.02
235.407	103.71
235.863	108.94
236.32	106.8
236.776	105.74
237.232	111.8
237.689	112.33
238.145	111.52
238.601	107.53
239.057	103.88
239.514	104
239.97	97.03
240.426	99.46
240.882	99.38
241.338	96.12
241.794	108.21
242.25	107.35
242.706	109.14
243.162	116.19
243.618	117.13
244.074	107.98
244.529	105.01
244.985	101.15
245.441	101.22
245.897	99.76
246.352	98.98
246.808	99.19
247.263	102.32
247.719	105.26
248.174	105.77
248.63	98.66
249.085	98.95
249.541	99.29
249.996	99.47
250.451	97.41
250.907	94.94
251.362	85.46
251.817	82.51
252.272	87.73
252.728	84.94
253.183	88.91
253.638	87.48
254.093	89.03
254.548	97.02
255.003	99.58
255.458	94.27
255.913	87.61
256.367	80.32
256.822	82.61
257.277	92.74
257.732	95.18
258.187	100.2
258.641	93.93
259.096	100.52
259.55	110.24
260.005	111.3
260.46	95.6
260.914	89.55
261.369	88.33
261.823	93.24
262.277	92.3
262.732	88.88
263.186	91.73
263.64	92.41
264.095	99.76
264.549	110.84
265.003	110.62
265.457	104.99
265.911	104.82
266.365	97.38
266.819	96.99
267.273	103.25
267.727	98.31
268.181	97.27
268.635	92.17
269.089	92.14
269.543	95.93
269.997	95.49
270.45	89.77
270.904	92.71
271.358	99.59
271.811	105.03
272.265	110.45
272.718	105.08
273.172	98.75
273.625	111.09
274.079	98.04
274.532	93.57
274.986	87.51
275.439	87.09
275.892	83.38
276.346	82.91
276.799	77.04
277.252	83.39
277.705	85.87
278.158	91.88
278.611	84.97
279.064	80.76
279.517	79.73
279.97	86.83
280.423	86.31
280.876	84.97
281.329	86.73
281.782	95.33
282.235	94.14
282.687	89.71
283.14	96.21
283.593	96.82
284.045	91.92
284.498	85.61
284.95	93.64
285.403	97.4
285.855	97.31
286.308	93.92
286.76	96.21
287.213	94.65
287.665	100.45
288.117	102.06
288.57	104.42
289.022	106.29
289.474	104.78
289.926	100.72
290.378	109.53
290.83	106.02
291.282	103.36
291.734	102.49
292.186	93.33
292.638	96.21
293.09	94.43
293.542	87.94
293.994	83.34
294.446	84.74
294.897	90.34
295.349	97.9
295.801	90.04
296.252	91.44
296.704	95.27
297.156	95.9
297.607	93.19
298.059	94.81
298.51	92.76
298.961	95.35
299.413	96.39
299.864	98.45
300.315	100.32
300.767	98.17
301.218	95.88
301.669	96.91
302.12	95.87
302.571	90
303.022	98.57
303.473	101.21
303.924	95.74
304.375	95.36
304.826	100.84
305.277	97.49
305.728	107.82
306.179	101.51
306.629	101.4
307.08	99.93
307.531	95.65
307.982	97
308.432	95.48
308.883	92.96
309.333	88.91
309.784	94.45
310.234	100.22
310.685	104.9
311.135	100.92
311.585	96.49
312.036	95.39
312.486	91.24
312.936	91.98
313.386	89.7
313.837	87.85
314.287	88.06
314.737	92.99
315.187	97.78
315.637	93.81
316.087	98.76
316.537	106.96
316.987	107.68
317.436	102.53
317.886	102.59
318.336	99.77
318.786	106.88
319.235	101.25
319.685	95.22
320.135	99
320.584	102.81
321.034	108.39
321.483	108.79
321.933	100.01
322.382	96.87
322.832	97.93
323.281	107.34
323.73	105.63
324.18	99.26
324.629	116.57
325.078	115.92
325.527	112.8
325.976	81.36
326.425	77.09
326.874	80.87
327.323	78.78
327.772	79.63
328.221	78.1
328.67	79.39
329.119	109.41
329.568	106.42
330.017	101.61
330.465	84.7
330.914	81.52
331.363	82.88
331.811	78.69
332.26	72.51
332.708	70.14
333.157	68.77
333.605	72.6
334.054	72.63
334.502	77.03
334.951	75.96
335.399	76.62
335.847	75.48
336.295	75.12
336.744	73.21
337.192	69.68
337.64	65.27
338.088	65.81
338.536	65.2
338.984	65.46
339.432	65.22
339.88	66.33
340.328	66.4
340.776	67.69
341.223	67.17
341.671	69.64
342.119	67.77
342.566	68.43
343.014	68.45
343.462	67.69
343.909	68.06
344.357	67.91
344.804	66.76
345.252	66.67
345.699	65
346.147	63.7
346.594	62.45
347.041	61.31
347.488	59.9
347.936	60.04
348.383	57.99
348.83	58.45
349.277	58.5
349.724	58.32
350.171	58.64
350.618	57.37
351.065	57.99
351.512	57.94
351.959	57.26
352.406	56.84
352.852	57.31
353.299	56.94
353.746	57.79
354.192	57.65
354.639	57.02
355.086	56.42
355.532	56.3
355.979	55.52
356.425	55.74
356.872	55.17
357.318	54.75
357.764	54.53
358.211	54.77
358.657	53.81
359.103	53.83
359.549	53.54
359.995	53.55
360.442	54.16
360.888	54.05
361.334	53.46
361.78	53.53
362.226	53.12
362.672	52.91
363.117	51.8
363.563	51.4
364.009	51.24
364.455	51.89
364.9	51.88
365.346	51.89
365.792	52.45
366.237	51.94
366.683	52.01
367.128	51.97
367.574	51.76
368.019	51.82
368.465	52.01
368.91	52.25
369.355	52.48
369.801	52.06
370.246	51.82
370.691	51.56
371.136	51.2
371.581	51.13
372.026	51.05
372.471	51.04
372.916	50.94
373.361	51.09
373.806	51.3
374.251	51.19
374.696	50.86
375.141	50.6
375.585	50.57
376.03	50.58
376.475	50.72
376.919	50.69
377.364	50.65
377.809	50.66
378.253	50.75
378.697	50.79
379.142	50.83
379.586	50.7
380.031	50.52
380.475	50.18
380.919	50.37
381.363	50.38
381.808	50.4
382.252	50.34
382.696	50.3
383.14	50.49
383.584	50.59
384.028	50.64
384.472	50.48
384.916	50.21
385.36	50.27
385.803	49.91
386.247	49.8
386.691	49.57
387.135	49.38
387.578	49.51
388.022	49.31
388.465	49.14
388.909	49.38
389.352	49.46
389.796	49.5
390.239	49.42
390.683	49.26
391.126	49.24
391.569	49.43
392.012	49.51
392.456	49.56
392.899	49.83
393.342	49.91
393.785	49.89
394.228	50
394.671	49.94
395.114	50.09
395.557	50.11
396	49.8
396.443	49.71
396.885	49.75
397.328	50
397.771	49.98
398.214	50.07
398.656	49.86
399.099	50.06
399.541	50.09
399.984	50.4
400.426	50.51
400.869	50.45
401.311	50.62
401.753	50.61
402.196	50.62
402.638	50.65
403.08	50.06
403.522	49.48
403.964	48.92
404.406	48.77
404.849	48.82
405.291	48.96
405.733	49.28
406.174	49.66
406.616	50.15
407.058	50.68
407.5	50.96
407.942	51.14
408.383	51.16
408.825	51.31
409.267	51.32
409.708	51.53
410.15	51.45
410.591	51.58
411.033	51.49
411.474	51.51
411.916	51.59
412.357	51.74
412.798	51.74
413.24	51.73
413.681	51.69
414.122	51.81
414.563	51.88
415.004	51.92
415.445	51.82
415.886	51.88
416.327	51.76
416.768	51.97
417.209	52.08
417.65	52.03
418.091	51.91
418.531	51.99
418.972	51.97
419.413	52.32
419.853	52.5
420.294	52.63
420.735	52.44
421.175	52.5
421.615	52.6
422.056	52.65
422.496	52.51
422.937	52.29
423.377	52.4
423.817	52.73
424.257	52.99
424.698	52.92
425.138	53.01
425.578	52.89
426.018	52.93
426.458	52.74
426.898	52.88
427.338	53
427.778	53.35
428.217	53.53
428.657	53.76
429.097	53.68
429.537	53.86
429.976	53.83
430.416	53.96
430.855	54.06
431.295	53.81
431.734	53.86
432.174	54.11
432.613	54.28
433.053	54.27
433.492	53.98
433.931	52.86
434.371	51.25
434.81	49.33
435.249	47.79
435.688	47.06
436.127	47.06
436.566	47.48
437.005	49.01
437.444	51.08
437.883	53.23
438.322	54.61
438.761	55.18
439.199	55.58
439.638	55.63
440.077	55.61
440.515	55.46
440.954	55.52
441.393	55.55
441.831	55.65
442.27	55.79
442.708	55.78
443.146	56.14
443.585	56.36
444.023	56.64
444.461	56.69
444.899	56.63
445.338	56.81
445.776	56.98
446.214	57.03
446.652	57.29
447.09	57.06
447.528	57.33
447.966	57.43
448.404	57.8
448.841	57.98
449.279	57.83
449.717	57.63
450.155	57.93
450.592	58.31
451.03	58.44
451.467	58.66
451.905	58.66
452.343	58.81
452.78	59.09
453.217	59.25
453.655	59.01
454.092	58.98
454.529	59
454.966	59.23
455.404	59.33
455.841	59.35
456.278	59.3
456.715	59.52
457.152	59.86
457.589	59.98
458.026	60.1
458.463	60.23
458.9	60.51
459.336	60.58
459.773	60.71
460.21	60.51
460.646	60.55
461.083	60.51
461.52	60.71
461.956	61.07
462.393	61.47
462.829	61.51
463.265	61.65
463.702	61.88
464.138	61.93
464.574	62.03
465.011	61.81
465.447	61.84
465.883	62.12
466.319	62.54
466.755	62.86
467.191	63.14
467.627	63
468.063	63.17
468.499	63.04
468.935	63.02
469.37	63.16
469.806	63.17
470.242	63.23
470.678	63.23
471.113	63.46
471.549	63.75
471.984	64.01
472.42	64.16
472.855	64.35
473.291	64.51
473.726	64.86
474.161	64.95
474.596	64.96
475.032	64.74
475.467	65.08
475.902	65.2
476.337	65.57
476.772	65.61
477.207	65.67
477.642	65.88
478.077	66.15
478.512	66.03
478.947	66.21
479.381	66.22
479.816	66.42
480.251	66.46
480.686	66.76
481.12	66.68
481.555	66.84
481.989	67
482.424	67.55
482.858	67.85
483.292	68
483.727	67.98
484.161	68.01
484.595	68.23
485.03	68.42
485.464	68.54
485.898	68.71
486.332	68.79
486.766	69.04
487.2	69.31
487.634	69.39
488.068	69.48
488.502	69.51
488.935	69.75
489.369	69.95
489.803	70.21
490.236	70.34
490.67	70.57
491.104	70.87
491.537	71.13
491.971	71.47
492.404	71.81
492.838	72.04
493.271	72.26
493.704	72.39
494.137	72.6
494.571	73
495.004	73.36
495.437	73.87
495.87	74.19
496.303	74.45
496.736	74.57
497.169	74.66
497.602	74.59
498.035	74.65
498.468	74.83
498.9	75.13
499.333	75.46
499.766	75.81
500.198	76.02
500.631	76.25
501.064	76.52
501.496	76.74
501.929	77.23
502.361	77.68
502.793	78.22
503.226	78.53
503.658	78.57
504.09	78.55
504.522	78.61
504.955	78.68
505.387	78.96
505.819	79.23
506.251	79.52
506.683	79.8
507.115	79.93
507.546	80.11
507.978	80.15
508.41	80.02
508.842	80.14
509.273	80.54
509.705	81.06
510.137	81.37
510.568	81.44
511	81.6
511.431	81.66
511.863	81.68
512.294	81.71
512.725	81.88
513.157	82.12
513.588	82.37
514.019	82.71
514.45	82.96
514.881	82.98
515.312	83.09
515.743	83.14
516.174	83.36
516.605	83.48
517.036	83.72
517.467	83.93
517.898	84.2
518.328	84.35
518.759	84.5
519.19	84.57
519.62	84.72
520.051	84.94
520.481	85.41
520.912	85.66
521.342	85.91
521.773	86.16
522.203	86.28
522.633	86.38
523.064	86.38
523.494	86.29
523.924	86.47
524.354	86.63
524.784	86.93
525.214	87.16
525.644	87.16
526.074	87.19
526.504	87.23
526.934	87.34
527.363	87.53
527.793	87.67
528.223	88.14
528.652	88.47
529.082	88.78
529.512	88.82
529.941	88.88
530.371	88.84
530.8	88.78
531.229	88.85
531.659	89.1
532.088	89.51
532.517	89.87
532.946	89.88
533.375	90.06
533.805	90.09
534.234	90.03
534.663	89.91
535.091	89.85
535.52	90.03
535.949	90.56
536.378	90.91
536.807	91.31
537.236	91.64
537.664	91.84
538.093	91.77
538.521	91.62
538.95	91.5
539.378	91.62
539.807	91.78
540.235	91.97
540.664	92.03
541.092	92.17
541.52	92.19
541.948	92.14
542.376	91.98
542.805	91.65
543.233	91.54
543.661	91.72
544.089	92.31
544.517	92.77
544.944	93.16
545.372	93.57
545.8	93.9
546.228	94.16
546.655	94.2
547.083	94.08
547.511	94.3
547.938	94.52
548.366	94.72
548.793	95.01
549.221	95.09
549.648	95.06
550.075	95.02
550.503	94.85
550.93	94.7
551.357	94.95
551.784	95.08
552.211	95.33
552.638	95.51
553.065	95.76
553.492	95.98
553.919	95.97
554.346	95.79
554.773	95.67
555.2	95.8
555.626	95.98
556.053	96.2
556.479	96.26
556.906	96.44
557.333	96.71
557.759	97
558.185	96.99
558.612	96.98
559.038	96.82
559.464	96.71
559.891	96.73
560.317	96.69
560.743	96.84
561.169	97.12
561.595	97.43
562.021	97.71
562.447	97.93
562.873	97.98
563.299	98.06
563.725	97.84
564.15	97.77
564.576	97.77
565.002	98
565.427	98.28
565.853	98.49
566.279	98.49
566.704	98.58
567.13	98.51
567.555	98.49
567.98	98.33
568.406	98.14
568.831	98.1
569.256	98.27
569.681	98.36
570.106	98.57
570.531	98.64
570.956	98.68
571.381	99.03
571.806	99.13
572.231	99.16
572.656	98.97
573.081	98.82
573.505	98.93
573.93	98.98
574.355	99.13
574.779	99.28
575.204	99.34
575.628	99.52
576.053	99.66
576.477	99.64
576.901	99.57
577.326	99.37
577.75	99.5
578.174	99.57
578.598	99.68
579.022	99.76
579.446	99.83
579.87	100
580.294	100.01
580.718	99.9
581.142	99.85
581.566	99.83
581.99	99.87
582.413	99.89
582.837	99.88
583.261	100.07
583.684	100.36
584.108	100.52
584.531	100.49
584.955	100.56
585.378	100.54
585.801	100.55
586.225	100.44
586.648	100.37
587.071	100.44
587.494	100.62
587.917	100.68
588.34	100.83
588.763	100.88
589.186	101.04
589.609	101.12
590.032	101.2
590.455	101.2
590.878	101.15
591.3	100.99
591.723	100.93
592.145	100.76
592.568	100.96
592.991	101.06
593.413	101.26
593.835	101.41
594.258	101.65
594.68	101.78
595.102	101.85
595.525	101.62
595.947	101.49
596.369	101.44
596.791	101.47
597.213	101.61
597.635	101.75
598.057	101.83
598.479	101.8
598.901	102
599.322	102.07
599.744	102.09
600.166	102.15
600.587	102.09
601.009	102.22
601.431	102.48
601.852	102.51
602.273	102.38
602.695	102.46
603.116	102.6
603.537	102.74
603.959	102.68
604.38	102.74
604.801	102.66
605.222	102.73
605.643	102.53
606.064	102.37
606.485	102.11
606.906	102.09
607.327	102.11
607.748	102.28
608.168	102.43
608.589	102.55
609.01	102.57
609.43	102.56
609.851	102.28
610.272	102.03
610.692	101.73
611.112	101.52
611.533	101.33
611.953	101.26
612.373	101.3
612.794	101.41
613.214	101.43
613.634	101.48
614.054	101.6
614.474	101.7
614.894	101.78
615.314	101.98
615.734	102.15
616.153	102.06
616.573	102.06
616.993	102
617.413	102.01
617.832	102.09
618.252	102.03
618.671	101.9
619.091	101.89
619.51	101.91
619.93	102.08
620.349	102.01
620.768	102.03
621.187	102.09
621.607	102.17
622.026	102.27
622.445	102.49
622.864	102.39
623.283	102.34
623.702	102.26
624.121	102.36
624.54	102.43
624.958	102.3
625.377	102.37
625.796	102.5
626.214	102.69
626.633	102.83
627.051	102.65
627.47	102.61
627.888	102.67
628.307	102.51
628.725	102.51
629.143	102.35
629.562	102.28
629.98	102.4
630.398	102.48
630.816	102.6
631.234	102.91
631.652	103.03
632.07	103.17
632.488	103.27
632.906	103.28
633.323	103.27
633.741	103.25
634.159	103.15
634.576	103.13
634.994	103.21
635.412	103.27
635.829	103.25
636.247	103.23
636.664	103.21
637.081	103.18
637.499	103.01
637.916	103.11
638.333	103.25
638.75	103.36
639.167	103.22
639.584	103.05
640.001	103.1
640.418	102.96
640.835	102.76
641.252	102.46
641.669	102.45
642.085	102.6
642.502	102.8
642.919	103.03
643.335	103.16
643.752	103.45
644.168	103.97
644.585	104.29
645.001	104.55
645.417	104.41
645.834	104.37
646.25	104.29
646.666	104.2
647.082	104.15
647.498	103.98
647.914	104.02
648.33	104.25
648.746	104.34
649.162	104.42
649.578	104.37
649.994	104.4
650.409	104.69
650.825	105
651.241	105.31
651.656	105.45
652.072	105.64
652.487	105.77
652.903	105.83
653.318	105.64
653.733	105.48
654.149	105.39
654.564	105.48
654.979	105.73
655.394	105.85
655.809	106.12
656.224	106.35
656.639	106.55
657.054	106.78
657.469	106.67
657.884	106.69
658.298	106.72
658.713	106.67
659.128	106.94
659.542	107.01
659.957	106.94
660.371	106.82
660.786	106.73
661.2	106.64
661.615	106.6
662.029	106.37
662.443	106.33
662.857	106.71
663.272	107.34
663.686	107.71
664.1	108.06
664.514	108.14
664.928	108.2
665.341	108.12
665.755	107.96
666.169	107.72
666.583	107.78
666.996	107.93
667.41	108.26
667.824	108.35
668.237	108.56
668.651	108.77
669.064	109.04
669.478	109.12
669.891	109.15
670.304	109.1
670.717	109.33
671.13	109.74
671.544	110.2
671.957	110.38
672.37	110.71
672.783	110.88
673.196	111.14
673.608	111.23
674.021	111.15
674.434	111.29
674.847	111.79
675.259	112.05
675.672	112.17
676.084	112.27
676.497	112.47
676.909	112.42
677.322	112.17
677.734	111.67
678.146	111.46
678.559	111.63
678.971	111.76
679.383	111.75
679.795	111.86
680.207	112.03
680.619	112.57
681.031	112.81
681.443	113.1
681.855	113.49
682.267	113.95
682.678	114.11
683.09	114.42
683.502	114.06
683.913	113.76
684.325	113.46
684.736	113.13
685.147	112.81
685.559	112.78
685.97	112.96
686.381	113.08
686.793	113.32
687.204	113.65
687.615	113.92
688.026	114.52
688.437	114.72
688.848	114.49
689.259	114.19
689.67	113.73
690.08	113.36
690.491	113.03
690.902	112.63
691.312	112.46
691.723	112.41
692.133	112.54
692.544	112.6
692.954	112.64
693.365	112.67
693.775	112.43
694.185	112.59
694.596	113.12
695.006	113.76
695.416	114.14
695.826	114.33
696.236	114.54
696.646	114.78
697.056	114.74
697.466	114.4
697.875	113.85
698.285	113.63
698.695	113.29
699.104	113.09
699.514	112.96
699.923	112.97
700.333	113.54
700.742	114.04
701.152	114.6
701.561	114.93
701.97	115.27
702.38	115.54
702.789	115.4
703.198	114.6
703.607	113.66
704.016	113.04
704.425	112.55
704.834	112.15
705.243	111.91
705.651	111.7
706.06	111.83
706.469	112.17
706.877	112.54
707.286	113.01
707.694	113.97
708.103	114.89
708.511	115.63
708.92	116.56
709.328	117.11
709.736	117.35
710.144	117.3
710.553	116.95
710.961	116.22
711.369	115.3
711.777	114.38
712.185	113.88
712.593	113.67
713	113.56
713.408	113.52
713.816	113.79
714.224	114.05
714.631	114.79
715.039	115.14
715.446	115.72
715.854	115.91
716.261	116.35
716.669	116.81
717.076	117.19
717.483	117.06
717.89	116.77
718.297	116.26
718.705	115.91
719.112	114.81
719.519	113.76
719.925	112.8
720.332	112.35
720.739	112.31
721.146	112.84
721.553	113.51
721.959	114.3
722.366	115.17
722.773	115.9
723.179	116.47
723.585	116.46
723.992	115.9
724.398	115.59
724.804	115.24
725.211	114.84
725.617	114.17
726.023	113.43
726.429	113.05
726.835	112.91
727.241	112.79
727.647	112.82
728.053	113.21
728.459	113.61
728.864	113.75
729.27	114.1
729.676	114.43
730.081	115.02
730.487	115.23
730.892	115.1
731.298	115.32
731.703	115.46
732.108	115.09
732.514	114.63
732.919	113.54
733.324	112.73
733.729	112.31
734.134	111.95
734.539	111.54
734.944	111.41
735.349	111.61
735.754	112.57
736.159	113.44
736.563	114.42
736.968	115.07
737.373	116.04
737.777	116.49
738.182	116.82
738.586	116.25
738.991	115.64
739.395	114.92
739.799	113.77
740.204	112.73
740.608	111.78
741.012	111.12
741.416	110.49
741.82	109.8
742.224	109.55
742.628	109.59
743.032	110.25
743.436	110.61
743.839	110.94
744.243	111.53
744.647	112.49
745.05	113.51
745.454	113.65
745.857	113.58
746.261	113.75
746.664	114.12
747.067	114.3
747.471	113.65
747.874	112.99
748.277	112.53
748.68	112.34
749.083	111.84
749.486	111.19
749.889	110.57
750.292	110.25
750.695	110.35
751.098	110.74
751.5	110.98
751.903	111.58
752.306	112.07
752.708	112.95
753.111	113.83
753.513	114.49
753.915	115
754.318	115.71
754.72	115.51
755.122	115.24
755.524	114.35
755.927	113.12
756.329	111.76
756.731	110.41
757.133	109.41
757.534	108.85
757.936	108.93
758.338	109.6
758.74	110.67
759.141	111.63
759.543	112.58
759.945	113.52
760.346	114.47
760.748	115.04
761.149	115.81
761.55	115.9
761.952	115.85
762.353	115.64
762.754	115.23
763.155	114.47
763.556	113.81
763.957	112.7
764.358	111.68
764.759	110.73
765.16	110.14
765.561	109.65
765.962	109.58
766.362	109.48
766.763	109.89
767.163	111.01
767.564	112.28
767.964	113.08
768.365	113.5
768.765	113.68
769.165	114.2
769.566	114.4
769.966	114.02
770.366	113.68
770.766	113.06
771.166	112.83
771.566	112.45
771.966	111.82
772.366	111.05
772.766	110.49
773.165	109.97
773.565	109.6
773.965	109.48
774.364	109.45
774.764	109.47
775.163	109.71
775.563	110.21
775.962	111.11
776.361	112.05
776.761	112.71
777.16	113.11
777.559	113.42
777.958	114.08
778.357	114.68
778.756	114.77
779.155	114.12
779.554	113.51
779.952	112.82
780.351	112.26
780.75	111.26
781.149	109.82
781.547	108.39
781.946	107.77
782.344	107.25
782.742	107.14
783.141	107.12
783.539	107.5
783.937	108.11
784.336	109.58
784.734	110.97
785.132	112.23
785.53	113.03
785.928	113.51
786.326	114.2
786.723	114.56
787.121	114.47
787.519	114.14
787.917	113.64
788.314	113.03
788.712	112.43
789.109	111.54
789.507	110.52
789.904	109.58
790.302	109.15
790.699	108.63
791.096	108.02
791.493	107.53
791.89	107.66
792.287	108.05
792.684	108.44
793.081	108.75
793.478	109.69
793.875	110.86
794.272	111.88
794.669	112.62
795.065	113.03
795.462	113.08
795.858	112.88
796.255	112.35
796.651	111.54
797.048	110.46
797.444	109.2
797.84	108.14
798.237	107.11
798.633	106.19
799.029	105.35
799.425	104.72
799.821	104.5
800.217	104.89
800.613	105.5
801.008	106.39
801.404	107.38
801.8	108.91
802.196	110.47
802.591	112.35
802.987	113.7
803.382	114.8
803.778	115.78
804.173	116.16
804.568	115.89
804.963	115.17
805.359	114.2
805.754	113.12
806.149	111.87
806.544	110.66
806.939	109.37
807.334	108.15
807.729	107.37
808.123	106.49
808.518	105.69
808.913	104.74
809.307	104.1
809.702	104.1
810.096	104.3
810.491	104.78
810.885	105.7
811.28	107.05
811.674	108.28
812.068	109.23
812.462	110.34
812.856	111.16
813.251	111.6
813.645	111.62
814.038	111.43
814.432	111.21
814.826	110.6
815.22	109.72
815.614	108.86
816.007	108.1
816.401	107.42
816.794	106.35
817.188	105.71
817.581	105.32
817.975	104.58
818.368	104.1
818.761	104.05
819.154	104.55
819.548	105.39
819.941	106.11
820.334	106.95
820.727	107.86
821.12	108.86
821.512	109.59
821.905	110.23
822.298	110.72
822.691	111.28
823.083	111.39
823.476	111.14
823.868	110.81
824.261	110.52
824.653	109.64
825.045	108.27
825.438	106.42
825.83	104.74
826.222	103.09
826.614	101.73
827.006	100.84
827.398	100.63
827.79	101.04
828.182	101.9
828.574	103.28
828.966	104.34
829.357	105.82
829.749	106.95
830.14	107.79
830.532	108.38
830.923	108.98
831.315	109.29
831.706	109.56
832.097	109.7
832.489	109.72
832.88	109.49
833.271	109.35
833.662	108.95
834.053	108.38
834.444	107.45
834.835	106.39
835.226	105.31
835.616	104.2
836.007	103.31
836.398	102.3
836.788	101.69
837.179	101.59
837.569	101.84
837.96	102.21
838.35	102.5
838.741	103.22
839.131	104.51
839.521	105.83
839.911	107.08
840.301	108.17
840.691	109.52
841.081	110.87
841.471	112.05
841.861	112.69
842.251	112.91
842.64	112.93
843.03	112.46
843.42	111.29
843.809	109.76
844.199	108.59
844.588	107.32
844.977	106.18
845.367	105.04
845.756	104.3
846.145	104.02
846.534	104.15
846.923	104.21
847.312	104.1
847.701	104.15
848.09	104.22
848.479	104.36
848.868	104.91
849.257	105.68
849.645	106.47
850.034	107.15
850.422	107.78
850.811	108.78
851.199	109.71
851.588	110.16
851.976	110.1
852.364	109.93
852.753	109.87
853.141	109.62
853.529	108.79
853.917	108.04
854.305	107.32
854.693	106.86
855.08	106.39
855.468	105.45
855.856	104.57
856.244	104.53
856.631	104.21
857.019	103.74
857.406	103.01
857.794	102.79
858.181	102.94
858.568	103.72
858.956	104.41
859.343	105.19
859.73	106.31
860.117	107.82
860.504	108.8
860.891	109.21
861.278	108.79
861.665	108.36
862.052	108.36
862.438	108.63
862.825	108.22
863.212	106.84
863.598	105.75
863.985	105.21
864.371	104.73
864.757	103.7
865.144	102.24
865.53	100.71
865.916	100.03
866.302	99.58
866.688	98.87
867.074	98.2
867.46	97.74
867.846	97.67
868.232	98.35
868.618	99.27
869.004	100.21
869.389	101.04
869.775	101.98
870.16	103.18
870.546	105.07
870.931	107.09
871.317	108.65
871.702	109.58
872.087	109.7
872.472	109.61
872.857	109.22
873.242	108.22
873.627	107.11
874.012	106.32
874.397	106.42
874.782	106.88
875.167	106.99
875.552	106.71
875.936	106.37
876.321	105.76
876.705	105.01
877.09	104.12
877.474	103.07
877.858	101.93
878.243	101.37
878.627	101.03
879.011	101.18
879.395	101.27
879.779	101.34
880.163	102.34
880.547	103.67
880.931	105.07
881.315	106.44
881.699	107.61
882.082	108.91
882.466	109.74
882.849	109.99
883.233	109.56
883.616	108.82
884	108.08
884.383	107.28
884.766	106.33
885.15	105.61
885.533	104.64
885.916	104.33
886.299	103.73
886.682	103.06
887.065	101.9
887.448	100.72
887.83	99.82
888.213	99.55
888.596	99.03
888.978	98.78
889.361	98.73
889.743	99.39
890.126	100.2
890.508	101.35
890.89	102.69
891.273	104.45
891.655	105.7
892.037	106.74
892.419	107.73
892.801	108.56
893.183	108.82
893.565	108.8
893.947	108.61
894.328	108.93
894.71	109.34
895.092	109.45
895.473	109.11
895.855	108.69
896.236	107.56
896.618	106.34
896.999	105.2
897.38	103.95
897.761	103.01
898.143	102.04
898.524	101.04
898.905	100.2
899.286	99.54
899.666	98.61
900.047	97.73
900.428	97.21
900.809	97.41
901.19	97.84
901.57	99.01
901.951	99.82
902.331	100.94
902.712	102.09
903.092	103.27
903.472	104.57
903.852	105.74
904.233	106.45
904.613	107.56
904.993	108.36
905.373	109.1
905.753	109.12
906.133	108.71
906.512	108.13
906.892	107.29
907.272	106.42
907.651	105.5
908.031	104.47
908.41	103.17
908.79	101.62
909.169	100.11
909.549	98.75
909.928	98.04
910.307	97.61
910.686	97.65
911.065	97.54
911.444	97.61
911.823	98.24
912.202	98.98
912.581	99.25
912.96	99.73
913.338	100.06
913.717	101.2
914.096	102.44
914.474	103.34
914.853	103.49
915.231	103.57
915.609	103.47
915.988	103.34
916.366	103.57
916.744	103.79
917.122	103.92
917.5	104.32
917.878	104.79
918.256	105.39
918.634	105.77
919.012	105.45
919.389	105.14
919.767	104.29
920.145	103.14
920.522	102.32
920.9	101.05
921.277	99.73
921.654	98.85
922.032	97.87
922.409	97.27
922.786	96.71
923.163	95.99
923.54	95.96
923.917	96.3
924.294	97.05
924.671	97.7
925.048	99.17
925.425	100.87
925.801	102.89
926.178	104.43
926.554	105.48
926.931	106.82
927.307	108.63
927.684	109.77
928.06	110.44
928.436	110.56
928.812	110.45
929.188	110.35
929.565	109.98
929.941	108.92
930.316	107.79
930.692	106.71
931.068	105.14
931.444	103.71
931.82	101.59
932.195	99.71
932.571	98.12
932.946	97.01
933.322	96.43
933.697	96.44
934.072	96.27
934.448	96.17
934.823	96.06
935.198	95.79
935.573	95.32
935.948	94.56
936.323	94.62
936.698	95.02
937.073	95.95
937.447	97.47
937.822	99.39
938.197	101.12
938.571	103.35
938.946	105.37
939.32	107.38
939.694	109.21
940.069	110.94
940.443	111.63
940.817	111.76
941.191	111.51
941.565	110.28
941.939	109.42
942.313	108.71
942.687	107.75
943.061	106.39
943.435	105.54
943.808	104.46
944.182	102.86
944.556	101.59
944.929	100.2
945.303	97.87
945.676	96.25
946.049	95.03
946.422	94.87
946.796	95.17
947.169	96.07
947.542	96.65
947.915	97.76
948.288	98.16
948.661	98.73
949.033	98.75
949.406	99.17
949.779	99.51
950.151	100.17
950.524	100.81
950.897	101.98
951.269	102.44
951.641	103.22
952.014	103.55
952.386	103.79
952.758	104.48
953.13	105.08
953.502	105.27
953.874	105.6
954.246	106.03
954.618	106.05
954.99	105.51
955.361	103.91
955.733	102.63
956.105	102.12
956.476	100.98
956.848	99.64
957.219	98.24
957.591	96.87
957.962	96.27
958.333	96.32
958.704	96.02
959.075	95.26
959.446	95.29
959.817	95.34
960.188	95.82
960.559	95.51
960.93	95.19
961.301	95.48
961.671	96.23
962.042	96.72
962.412	97.31
962.783	98.6
963.153	99.47
963.524	100.26
963.894	101.09
964.264	102.25
964.634	103.85
965.004	104.91
965.374	105.99
965.744	107.27
966.114	107.67
966.484	107.69
966.854	106.84
967.224	105.68
967.593	104.64
967.963	103.97
968.332	102.58
968.702	102.09
969.071	101.24
969.44	100.4
969.81	99.98
970.179	98.91
970.548	98.28
970.917	97.56
971.286	97.08
971.655	97.09
972.024	97.25
972.393	96.78
972.761	96.74
973.13	96.17
973.499	95.79
973.867	95.14
974.236	94.74
974.604	94.6
974.973	94.96
975.341	96.04
975.709	97.54
976.077	99.25
976.445	100.85
976.813	102
977.181	103.77
977.549	104.77
977.917	104.91
978.285	105.64
978.653	105.91
979.02	106.59
979.388	106.8
979.755	106.05
980.123	105.42
980.49	104.99
980.858	104.61
981.225	103.77
981.592	103.36
981.959	103.04
982.326	103.42
982.693	102.58
983.06	101.31
983.427	99.55
983.794	97.94
984.161	95.79
984.528	94.7
984.894	93.46
985.261	92.92
985.627	92.89
985.994	92.97
986.36	93.68
986.726	95.06
987.093	95.75
987.459	96.48
987.825	97.35
988.191	97.61
988.557	98.5
988.923	99.51
989.289	100.21
989.654	101.32
990.02	102.53
990.386	103.36
990.751	105.11
991.117	106.8
991.482	107.37
991.848	107.49
992.213	107.62
992.578	108.17
992.944	109.44
993.309	109.53
993.674	108.88
994.039	108.71
994.404	108.57
994.769	108.17
995.134	107.29
995.498	105.93
995.863	104.04
996.228	102.68
996.592	102.52
996.957	102.12
997.321	101.66
997.685	101.07
998.05	99.35
998.414	97.86
998.778	96.72
999.142	95.55
999.506	94.61
999.87	93.52
1000.234	93.28
1000.598	93.97
1000.962	94.63
1001.326	94.98
1001.689	95.92
1002.053	97.29
1002.416	98.95
1002.78	100.06
1003.143	100.69
1003.506	101.83
1003.87	102.41
1004.233	102.9
1004.596	102.65
1004.959	102.78
1005.322	103.24
1005.685	103.26
1006.048	102.23
1006.411	101.81
1006.773	101.73
1007.136	101.63
1007.499	101.32
1007.861	101.01
1008.224	101.48
1008.586	101.53
1008.948	101.53
1009.311	100.58
1009.673	100.2
1010.035	100.18
1010.397	100.27
1010.759	100.16
1011.121	99.92
1011.483	98.9
1011.845	98.08
1012.207	96.3
1012.568	94.82
1012.93	93.68
1013.291	93.28
1013.653	92.65
1014.014	91.48
1014.376	90.51
1014.737	90.58
1015.098	90.08
1015.459	90.58
1015.82	91.53
1016.181	92.47
1016.542	94.77
1016.903	97.02
1017.264	98.85
1017.625	100.61
1017.986	101.2
1018.346	101.67
1018.707	101.95
1019.067	102.71
1019.428	103.57
1019.788	103.44
1020.148	104.33
1020.509	104.77
1020.869	105.31
1021.229	105.86
1021.589	105.11
1021.949	105.23
1022.309	105.07
1022.669	104.61
1023.028	105.02
1023.388	105.27
1023.748	105.03
1024.107	103.98
1024.467	103.78
1024.826	103.43
1025.186	102.04
1025.545	100.83
1025.904	98.94
1026.263	96.57
1026.623	94.88
1026.982	93.63
1027.341	91.11
1027.699	90.08
1028.058	88.65
1028.417	88.62
1028.776	89.62
1029.134	91.01
1029.493	91.82
1029.852	92.62
1030.21	93.72
1030.568	95.48
1030.927	97.28
1031.285	98.34
1031.643	98.11
1032.001	100.35
1032.359	102.38
1032.717	103.11
1033.075	103.36
1033.433	105.24
1033.791	106.92
1034.148	107.87
1034.506	108.96
1034.864	108.12
1035.221	109.1
1035.579	108.02
1035.936	107.06
1036.293	106.39
1036.651	105.66
1037.008	104.08
