Data from chem10_Transmission_13-46-47-762.txt Node
Date: Mon Dec 20 13:46:47 EST 2021
User: rbelisle
Spectrometer: USB2+H08074
Trigger mode: 0
Integration Time (sec): 5.000000E-2
Scans to average: 10
Electric dark correction enabled: true
Nonlinearity correction enabled: false
Boxcar width: 6
XAxis mode: Wavelengths
Number of Pixels in Spectrum: 2048
>>>>>Begin Spectral Data<<<<<
189.124	55.39
189.584	22.23
190.044	-89.92
190.504	-73.85
190.964	-335.73
191.424	1861
191.884	987.67
192.343	3951.48
192.803	-3422.73
193.263	506.72
193.722	769.5
194.182	-75.85
194.642	-33.43
195.101	-247.38
195.561	233.55
196.02	-1023.83
196.479	-33.68
196.939	84.41
197.398	172.35
197.858	209.15
198.317	384.02
198.776	198.86
199.235	126.74
199.695	103.84
200.154	102.77
200.613	90.79
201.072	86.42
201.531	84.32
201.99	92.69
202.449	99.47
202.908	106.92
203.367	107.2
203.826	105.02
204.285	109.65
204.744	107.58
205.202	107.31
205.661	103.78
206.12	107.77
206.579	109.09
207.037	123.28
207.496	119.96
207.955	125.15
208.413	128.47
208.872	131.33
209.33	125.76
209.789	123.83
210.247	121.13
210.705	123.95
211.164	116.48
211.622	118.75
212.08	126.45
212.539	128.89
212.997	123.07
213.455	124.14
213.913	124.63
214.371	125.5
214.829	119.77
215.287	119.58
215.745	118.37
216.203	120.34
216.661	114.2
217.119	110.08
217.577	108.54
218.035	111.03
218.493	103.29
218.95	102.54
219.408	105.24
219.866	104.55
220.324	112.13
220.781	119.85
221.239	116.15
221.696	116.86
222.154	117.63
222.611	118.6
223.069	106.91
223.526	104.63
223.984	96.62
224.441	101.47
224.898	102.7
225.355	100.24
225.813	102.53
226.27	109.74
226.727	112.56
227.184	116.98
227.641	118.48
228.098	121.07
228.555	118.84
229.012	110.53
229.469	109.08
229.926	106.02
230.383	101.21
230.84	97.53
231.297	99.29
231.754	101.28
232.21	104.05
232.667	98.51
233.124	102.42
233.58	104.88
234.037	102.62
234.494	109.04
234.95	113.76
235.407	111.04
235.863	118.06
236.32	116.88
236.776	114.92
237.232	117.99
237.689	112.77
238.145	108.88
238.601	103.03
239.057	99.55
239.514	101.82
239.97	96.83
240.426	102.49
240.882	99.69
241.338	98.35
241.794	111.96
242.25	112.48
242.706	111.44
243.162	120.47
243.618	126.21
244.074	121.33
244.529	120.07
244.985	115.26
245.441	117.62
245.897	115.95
246.352	115.21
246.808	119.09
247.263	123.4
247.719	124.46
248.174	124.76
248.63	112.57
249.085	107.33
249.541	107.32
249.996	105.69
250.451	103.44
250.907	104.2
251.362	95.37
251.817	94.98
252.272	103.55
252.728	101.39
253.183	105.47
253.638	105.89
254.093	108.96
254.548	120.94
255.003	126.59
255.458	122.79
255.913	115.43
256.367	106.48
256.822	107.9
257.277	114.35
257.732	115.03
258.187	119.36
258.641	113.04
259.096	119.32
259.55	128.03
260.005	128.3
260.46	113.56
260.914	105.47
261.369	101.8
261.823	111.28
262.277	110.97
262.732	105.16
263.186	106.99
263.64	110.15
264.095	114.13
264.549	119.18
265.003	118.09
265.457	112.22
265.911	110.24
266.365	104.06
266.819	102.52
267.273	105.16
267.727	98.53
268.181	97.73
268.635	95.94
269.089	99.48
269.543	104.81
269.997	101.9
270.45	93.93
270.904	102.78
271.358	109.26
271.811	113.88
272.265	112.03
272.718	107.14
273.172	100.69
273.625	111.52
274.079	100.41
274.532	95.01
274.986	86.26
275.439	86.93
275.892	89.23
276.346	90.51
276.799	84.59
277.252	93.35
277.705	97
278.158	109.67
278.611	103.99
279.064	111.77
279.517	113.4
279.97	117.29
280.423	114.42
280.876	117.63
281.329	115.58
281.782	123.93
282.235	125.19
282.687	115.68
283.14	122.33
283.593	122.4
284.045	116.96
284.498	113.6
284.95	116.59
285.403	118.74
285.855	121.61
286.308	114.58
286.76	118.01
287.213	111.27
287.665	115.76
288.117	119.55
288.57	118.18
289.022	121.68
289.474	121.46
289.926	114.12
290.378	122.87
290.83	115.64
291.282	112.09
291.734	107.16
292.186	102.25
292.638	106.38
293.09	107.19
293.542	102.53
293.994	98.42
294.446	102.32
294.897	107.01
295.349	118.07
295.801	115.05
296.252	114.67
296.704	125.92
297.156	125
297.607	124.35
298.059	119
298.51	115.08
298.961	116.08
299.413	117.14
299.864	114.4
300.315	116.3
300.767	117.73
301.218	112.93
301.669	111.31
302.12	112.71
302.571	105.26
303.022	115.98
303.473	112.61
303.924	111.12
304.375	110.61
304.826	119.24
305.277	109.82
305.728	119.99
306.179	117.3
306.629	116.45
307.08	114.89
307.531	113.76
307.982	113.97
308.432	112.99
308.883	110.1
309.333	109.42
309.784	112.55
310.234	118.1
310.685	123.47
311.135	122.33
311.585	119.36
312.036	118.86
312.486	115.65
312.936	113.71
313.386	107.21
313.837	104.17
314.287	103.92
314.737	109.63
315.187	115.1
315.637	109.53
316.087	113.93
316.537	122.11
316.987	122.52
317.436	122.47
317.886	121.09
318.336	115.16
318.786	126.98
319.235	121.26
319.685	113.13
320.135	111.36
320.584	105.79
321.034	109.81
321.483	112.11
321.933	105.91
322.382	101.43
322.832	97.32
323.281	104.87
323.73	102.88
324.18	94.45
324.629	114.78
325.078	113.67
325.527	111.1
325.976	83.31
326.425	82.33
326.874	87.58
327.323	83.11
327.772	83.83
328.221	87.34
328.67	94.52
329.119	126.99
329.568	121.94
330.017	118.06
330.465	95.96
330.914	93.5
331.363	91.43
331.811	87.51
332.26	81.79
332.708	80.59
333.157	79.97
333.605	83.4
334.054	80.85
334.502	82.21
334.951	79.34
335.399	80.72
335.847	79.77
336.295	78.36
336.744	75.46
337.192	75.56
337.64	69.61
338.088	68.48
338.536	64.79
338.984	66.49
339.432	65.11
339.88	64.58
340.328	64.75
340.776	65.57
341.223	65.26
341.671	65.79
342.119	65.35
342.566	66.77
343.014	66.12
343.462	66.25
343.909	66.38
344.357	67.46
344.804	64
345.252	64.26
345.699	61.47
346.147	59.59
346.594	58.42
347.041	57.66
347.488	56.94
347.936	56.55
348.383	53.88
348.83	54.27
349.277	53.41
349.724	53.19
350.171	52.43
350.618	51.6
351.065	51.23
351.512	51.66
351.959	51.4
352.406	50.66
352.852	50.69
353.299	49.54
353.746	50.43
354.192	49.86
354.639	48.7
355.086	47.86
355.532	48.11
355.979	47.85
356.425	48
356.872	47.63
357.318	47.52
357.764	47.41
358.211	47.42
358.657	47
359.103	47.16
359.549	46.78
359.995	47.22
360.442	47.39
360.888	47.49
361.334	46.71
361.78	46.53
362.226	46.15
362.672	46.25
363.117	45.15
363.563	44.75
364.009	44.69
364.455	44.24
364.9	44.25
365.346	44.29
365.792	44.24
366.237	44.17
366.683	44
367.128	43.8
367.574	43.58
368.019	43.59
368.465	43.63
368.91	43.61
369.355	43.69
369.801	43.37
370.246	43.57
370.691	43.22
371.136	42.78
371.581	42.83
372.026	42.75
372.471	43.04
372.916	43.48
373.361	43.82
373.806	43.97
374.251	43.8
374.696	43.53
375.141	43.44
375.585	43.47
376.03	43.43
376.475	43.37
376.919	43.62
377.364	43.9
377.809	43.88
378.253	43.74
378.697	43.55
379.142	43.57
379.586	43.51
380.031	43.46
380.475	43.2
380.919	43.25
381.363	43.38
381.808	43.52
382.252	43.63
382.696	43.48
383.14	43.82
383.584	44.01
384.028	44.32
384.472	44.24
384.916	44.01
385.36	44.18
385.803	43.94
386.247	43.98
386.691	44.01
387.135	43.86
387.578	43.83
388.022	43.93
388.465	44.01
388.909	44.18
389.352	44.19
389.796	44.2
390.239	44.09
390.683	44.12
391.126	44.13
391.569	44.48
392.012	44.55
392.456	44.59
392.899	44.86
393.342	45.09
393.785	45.23
394.228	45.25
394.671	45.27
395.114	45.43
395.557	45.67
396	45.27
396.443	45.15
396.885	45.21
397.328	45.52
397.771	45.8
398.214	46.02
398.656	45.95
399.099	46.22
399.541	46.07
399.984	46.5
400.426	46.71
400.869	46.95
401.311	46.94
401.753	47.3
402.196	47.42
402.638	47.35
403.08	46.72
403.522	46.03
403.964	45.46
404.406	45.25
404.849	45.19
405.291	45.35
405.733	45.67
406.174	46.03
406.616	46.45
407.058	47.09
407.5	47.12
407.942	47.12
408.383	47.09
408.825	47.05
409.267	47.06
409.708	47.29
410.15	47.21
410.591	47.31
411.033	47.19
411.474	47
411.916	47.01
412.357	47
412.798	47.03
413.24	47.08
413.681	47.04
414.122	47.1
414.563	47.12
415.004	47.05
415.445	46.95
415.886	47.11
416.327	47.02
416.768	47.28
417.209	47.36
417.65	47.27
418.091	47.19
418.531	47.24
418.972	47.2
419.413	47.63
419.853	47.95
420.294	48.19
420.735	48.06
421.175	48.13
421.615	48.18
422.056	48.43
422.496	48.46
422.937	48.71
423.377	49.08
423.817	49.54
424.257	49.94
424.698	50.16
425.138	50.52
425.578	50.74
426.018	51.18
426.458	51.38
426.898	51.76
427.338	52.06
427.778	52.5
428.217	52.89
428.657	53.3
429.097	53.51
429.537	54.07
429.976	54.17
430.416	54.38
430.855	54.41
431.295	54.08
431.734	54.1
432.174	54.37
432.613	54.71
433.053	54.92
433.492	54.69
433.931	53.48
434.371	51.62
434.81	49.38
435.249	47.59
435.688	46.85
436.127	46.89
436.566	47.51
437.005	49
437.444	50.86
437.883	52.7
438.322	53.75
438.761	54.12
439.199	54.52
439.638	54.59
440.077	54.6
440.515	54.47
440.954	54.37
441.393	54.09
441.831	53.97
442.27	53.89
442.708	53.84
443.146	54.16
443.585	54.41
444.023	54.72
444.461	54.64
444.899	54.28
445.338	54.08
445.776	54.03
446.214	53.95
446.652	54.23
447.09	54.22
447.528	54.48
447.966	54.46
448.404	54.52
448.841	54.42
449.279	53.97
449.717	53.7
450.155	53.94
450.592	54.47
451.03	54.78
451.467	55.01
451.905	54.99
452.343	54.96
452.78	54.88
453.217	54.94
453.655	54.76
454.092	55.05
454.529	55.45
454.966	56.03
455.404	56.26
455.841	56.27
456.278	56.18
456.715	56.32
457.152	56.65
457.589	56.97
458.026	57.52
458.463	58.16
458.9	58.78
459.336	59.13
459.773	59.28
460.21	59.06
460.646	59.16
461.083	59.33
461.52	59.96
461.956	60.94
462.393	62.07
462.829	62.74
463.265	63.26
463.702	63.66
464.138	63.87
464.574	64.21
465.011	64.37
465.447	65.04
465.883	66.11
466.319	67.32
466.755	68.43
467.191	69.27
467.627	69.47
468.063	69.87
468.499	69.96
468.935	70.4
469.37	71.29
469.806	72.1
470.242	73.06
470.678	73.89
471.113	74.73
471.549	75.44
471.984	75.93
472.42	76.21
472.855	76.64
473.291	77.25
473.726	78.34
474.161	79.38
474.596	80.17
475.032	80.45
475.467	81.12
475.902	81.23
476.337	81.49
476.772	81.56
477.207	81.91
477.642	82.7
478.077	83.77
478.512	84.38
478.947	85
479.381	85.18
479.816	85.32
480.251	85.17
480.686	85.2
481.12	84.89
481.555	85.19
481.989	85.7
482.424	86.86
482.858	87.62
483.292	88.06
483.727	88.02
484.161	87.76
484.595	87.68
485.03	87.53
485.464	87.3
485.898	87.38
486.332	87.74
486.766	88.5
487.2	89.3
487.634	89.64
488.068	89.62
488.502	89.13
488.935	88.69
489.369	88.24
489.803	88.07
490.236	88.04
490.67	88.4
491.104	89.09
491.537	89.72
491.971	90.12
492.404	90.17
492.838	89.75
493.271	89.16
493.704	88.56
494.137	88.28
494.571	88.54
495.004	88.8
495.437	89.41
495.87	89.85
496.303	90.1
496.736	89.95
497.169	89.56
497.602	88.84
498.035	88.21
498.468	87.83
498.9	87.72
499.333	87.84
499.766	88.24
500.198	88.61
500.631	89.09
501.064	89.45
501.496	89.49
501.929	89.57
502.361	89.42
502.793	89.28
503.226	89.15
503.658	89.04
504.09	89.13
504.522	89.52
504.955	89.97
505.387	90.49
505.819	90.82
506.251	90.89
506.683	90.83
507.115	90.59
507.546	90.47
507.978	90.35
508.41	90.34
508.842	90.62
509.273	91.25
509.705	92.03
510.137	92.59
510.568	92.81
511	93.05
511.431	93.06
511.863	92.99
512.294	92.84
512.725	92.87
513.157	93.07
513.588	93.55
514.019	94.3
514.45	95.15
514.881	95.86
515.312	96.49
515.743	96.87
516.174	97.18
516.605	97.22
517.036	97.31
517.467	97.51
517.898	98.05
518.328	98.71
518.759	99.58
519.19	100.46
519.62	101.34
520.051	102.08
520.481	102.82
520.912	103.23
521.342	103.5
521.773	103.87
522.203	104.16
522.633	104.66
523.064	105.19
523.494	105.56
523.924	106.33
524.354	107.03
524.784	107.71
525.214	108.25
525.644	108.65
526.074	109.14
526.504	109.46
526.934	109.71
527.363	109.95
527.793	110.13
528.223	110.69
528.652	111.15
529.082	111.71
529.512	112.06
529.941	112.54
530.371	112.94
530.8	113.12
531.229	113.09
531.659	113.01
532.088	113.09
532.517	113.13
532.946	112.94
533.375	113.22
533.805	113.6
534.234	113.89
534.663	114.09
535.091	114.21
535.52	114.36
535.949	114.55
536.378	114.57
536.807	114.69
537.236	114.87
537.664	115.1
538.093	115.2
538.521	115.16
538.95	115.11
539.378	115.31
539.807	115.45
540.235	115.5
540.664	115.35
541.092	115.3
541.52	115.39
541.948	115.51
542.376	115.45
542.805	115.05
543.233	114.71
543.661	114.57
544.089	114.88
544.517	115.13
544.944	115.29
545.372	115.59
545.8	115.98
546.228	116.37
546.655	116.55
547.083	116.3
547.511	116.14
547.938	115.83
548.366	115.43
548.793	115.21
549.221	115.03
549.648	114.89
550.075	114.86
550.503	114.77
550.93	114.65
551.357	114.88
551.784	114.77
552.211	114.6
552.638	114.39
553.065	114.26
553.492	114.28
553.919	114.16
554.346	114.1
554.773	114.03
555.2	114.27
555.626	114.37
556.053	114.37
556.479	114.12
556.906	114
557.333	114.07
557.759	114.26
558.185	114.16
558.612	114.26
559.038	114.18
559.464	114.16
559.891	114.17
560.317	113.93
560.743	113.76
561.169	113.71
561.595	113.53
562.021	113.35
562.447	113.21
562.873	112.98
563.299	112.87
563.725	112.53
564.15	112.4
564.576	112.3
565.002	112.44
565.427	112.53
565.853	112.61
566.279	112.41
566.704	112.25
567.13	112.1
567.555	112.18
567.98	112.09
568.406	111.91
568.831	111.95
569.256	112.11
569.681	112.11
570.106	112.2
570.531	112.19
570.956	112.25
571.381	112.66
571.806	112.86
572.231	113.11
572.656	113.09
573.081	112.9
573.505	112.89
573.93	112.78
574.355	112.69
574.779	112.57
575.204	112.48
575.628	112.67
576.053	112.91
576.477	113.14
576.901	113.35
577.326	113.45
577.75	113.76
578.174	113.84
578.598	113.78
579.022	113.58
579.446	113.33
579.87	113.26
580.294	113.04
580.718	112.7
581.142	112.6
581.566	112.64
581.99	112.78
582.413	113.05
582.837	113.24
583.261	113.54
583.684	113.87
584.108	114.08
584.531	113.92
584.955	113.74
585.378	113.46
585.801	113.29
586.225	113.1
586.648	112.96
587.071	113.03
587.494	113.24
587.917	113.28
588.34	113.43
588.763	113.51
589.186	113.75
589.609	113.91
590.032	114.12
590.455	114.23
590.878	114.19
591.3	113.98
591.723	113.77
592.145	113.43
592.568	113.35
592.991	113.13
593.413	113.1
593.835	113.1
594.258	113.3
594.68	113.51
595.102	113.7
595.525	113.68
595.947	113.93
596.369	114.25
596.791	114.45
597.213	114.63
597.635	114.73
598.057	114.63
598.479	114.31
598.901	114.11
599.322	113.78
599.744	113.52
600.166	113.43
600.587	113.35
601.009	113.53
601.431	113.87
601.852	114.05
602.273	114.31
602.695	114.68
603.116	114.9
603.537	115.05
603.959	114.82
604.38	114.59
604.801	114.2
605.222	113.92
605.643	113.4
606.064	112.9
606.485	112.44
606.906	112.4
607.327	112.4
607.748	112.46
608.168	112.61
608.589	112.78
609.01	112.91
609.43	113.09
609.851	113.05
610.272	112.89
610.692	112.55
611.112	112.17
611.533	111.73
611.953	111.27
612.373	110.88
612.794	110.56
613.214	110.27
613.634	110.1
614.054	110.1
614.474	110.21
614.894	110.38
615.314	110.72
615.734	111.16
616.153	111.34
616.573	111.54
616.993	111.61
617.413	111.66
617.832	111.67
618.252	111.5
618.671	111.21
619.091	110.96
619.51	110.68
619.93	110.68
620.349	110.46
620.768	110.45
621.187	110.52
621.607	110.73
622.026	111.07
622.445	111.65
622.864	112
623.283	112.4
623.702	112.59
624.121	112.84
624.54	112.89
624.958	112.61
625.377	112.39
625.796	112.15
626.214	111.98
626.633	111.76
627.051	111.31
627.47	111.09
627.888	111.03
628.307	110.77
628.725	110.79
629.143	110.76
629.562	110.98
629.98	111.5
630.398	112.01
630.816	112.47
631.234	112.99
631.652	113.13
632.07	113.14
632.488	112.92
632.906	112.55
633.323	112.13
633.741	111.76
634.159	111.35
634.576	111.22
634.994	111.12
635.412	111.14
635.829	111.21
636.247	111.43
636.664	111.81
637.081	112.18
637.499	112.46
637.916	112.94
638.333	113.42
638.75	113.69
639.167	113.53
639.584	113.17
640.001	112.85
640.418	112.34
640.835	111.71
641.252	110.98
641.669	110.56
642.085	110.43
642.502	110.43
642.919	110.51
643.335	110.63
643.752	110.98
644.168	111.77
644.585	112.43
645.001	113.07
645.417	113.27
645.834	113.59
646.25	113.83
646.666	113.89
647.082	113.86
647.498	113.42
647.914	113.07
648.33	112.91
648.746	112.59
649.162	112.29
649.578	111.82
649.994	111.47
650.409	111.53
650.825	111.71
651.241	112.03
651.656	112.4
652.072	112.97
652.487	113.65
652.903	114.33
653.318	114.75
653.733	114.99
654.149	115.04
654.564	115.04
654.979	115.01
655.394	114.69
655.809	114.42
656.224	114.07
656.639	113.63
657.054	113.28
657.469	112.74
657.884	112.42
658.298	112.32
658.713	112.34
659.128	112.88
659.542	113.37
659.957	113.79
660.371	114.17
660.786	114.55
661.2	114.81
661.615	114.92
662.029	114.65
662.443	114.34
662.857	114.24
663.272	114.3
663.686	114.04
664.1	113.78
664.514	113.31
664.928	112.83
665.341	112.34
665.755	111.92
666.169	111.63
666.583	111.73
666.996	112.03
667.41	112.57
667.824	112.92
668.237	113.51
668.651	114.12
669.064	114.79
669.478	115.27
669.891	115.51
670.304	115.59
670.717	115.8
671.13	115.92
671.544	115.8
671.957	115.27
672.37	114.92
672.783	114.41
673.196	113.97
673.608	113.42
674.021	112.83
674.434	112.51
674.847	112.72
675.259	112.92
675.672	113.21
676.084	113.79
676.497	114.68
676.909	115.48
677.322	116.04
677.734	116.2
678.146	116.53
678.559	116.98
678.971	117.13
679.383	116.87
679.795	116.49
680.207	115.8
680.619	115.35
681.031	114.52
681.443	113.77
681.855	113.36
682.267	113.22
682.678	113.1
683.09	113.37
683.502	113.32
683.913	113.53
684.325	113.79
684.736	114.19
685.147	114.64
685.559	115.38
685.97	116.28
686.381	117.05
686.793	117.65
687.204	117.92
687.615	117.94
688.026	118.02
688.437	117.55
688.848	116.52
689.259	115.6
689.67	114.67
690.08	113.82
690.491	113.16
690.902	112.71
691.312	112.64
691.723	112.73
692.133	113.2
692.544	113.66
692.954	114.05
693.365	114.53
693.775	114.76
694.185	115.41
694.596	116.44
695.006	117.53
695.416	118.33
695.826	118.87
696.236	119.16
696.646	119.26
697.056	118.94
697.466	118.05
697.875	116.86
698.285	115.94
698.695	114.87
699.104	113.94
699.514	113.07
699.923	112.41
700.333	112.42
700.742	112.54
701.152	112.98
701.561	113.56
701.97	114.5
702.38	115.67
702.789	116.8
703.198	117.39
703.607	117.89
704.016	118.59
704.425	119.33
704.834	119.78
705.243	119.91
705.651	119.61
706.06	119.25
706.469	118.57
706.877	117.61
707.286	116.58
707.694	115.92
708.103	115.25
708.511	114.54
708.92	114.27
709.328	114.09
709.736	114.01
710.144	114.33
710.553	114.81
710.961	115.4
711.369	116.04
711.777	116.77
712.185	117.84
712.593	118.88
713	119.82
713.408	120.39
713.816	120.93
714.224	120.97
714.631	121.16
715.039	120.53
715.446	119.73
715.854	118.49
716.261	117.51
716.669	116.75
717.076	116.2
717.483	115.41
717.89	114.99
718.297	114.56
718.705	114.57
719.112	114.09
719.519	113.86
719.925	113.69
720.332	114.22
720.739	115.25
721.146	116.77
721.553	118.29
721.959	119.77
722.366	121.39
722.773	122.79
723.179	123.66
723.585	123.71
723.992	122.97
724.398	122.48
724.804	121.84
725.211	120.95
725.617	119.61
726.023	118.21
726.429	117.05
726.835	116.03
727.241	114.84
727.647	113.79
728.053	113.12
728.459	112.86
728.864	112.61
729.27	112.78
729.676	113.19
730.081	114.17
730.487	115.37
730.892	116.43
731.298	117.94
731.703	119.55
732.108	120.57
732.514	121.49
732.919	121.49
733.324	121.62
733.729	121.73
734.134	121.43
734.539	120.56
734.944	119.33
735.349	118.11
735.754	117.31
736.159	116.29
736.563	115.3
736.968	114.07
737.373	113.6
737.777	113.19
738.182	113.08
738.586	112.4
738.991	112.13
739.395	112.32
739.799	112.59
740.204	113.39
740.608	114.57
741.012	116.15
741.416	117.64
741.82	118.7
742.224	119.72
742.628	120.51
743.032	121.41
743.436	121.52
743.839	121.08
744.243	120.59
744.647	120.04
745.05	119.34
745.454	117.57
745.857	115.6
746.261	114.07
746.664	112.91
747.067	112.03
747.471	110.91
747.874	110.19
748.277	109.79
748.68	109.97
749.083	110.23
749.486	110.33
749.889	110.8
750.292	111.77
750.695	113.13
751.098	114.56
751.5	115.58
751.903	116.93
752.306	117.97
752.708	119.15
753.111	120.25
753.513	121.23
753.915	121.73
754.318	122.29
754.72	121.95
755.122	121.25
755.524	119.69
755.927	117.92
756.329	115.9
756.731	113.83
757.133	111.99
757.534	110.44
757.936	109.54
758.338	109.26
758.74	109.25
759.141	109.44
759.543	109.83
759.945	110.51
760.346	111.48
760.748	112.33
761.149	113.46
761.55	114.32
761.952	115.6
762.353	116.97
762.754	118.36
763.155	119.37
763.556	120.44
763.957	120.82
764.358	120.89
764.759	120.67
765.16	120.32
765.561	119.43
765.962	118.53
766.362	117.12
766.763	115.86
767.163	114.98
767.564	114.04
767.964	112.64
768.365	111.03
768.765	109.47
769.165	108.72
769.566	108.23
769.966	107.75
770.366	107.7
770.766	108.04
771.166	109.26
771.566	110.91
771.966	112.64
772.366	114.34
772.766	116.21
773.165	117.87
773.565	119.27
773.965	120.46
774.364	121.29
774.764	121.54
775.163	121.35
775.563	121.18
775.962	120.85
776.361	120.15
776.761	118.82
777.16	117.13
777.559	115.34
777.958	114.13
778.357	113.01
778.756	111.81
779.155	110.25
779.554	109.2
779.952	108.68
780.351	108.6
780.75	108.21
781.149	107.86
781.547	107.79
781.946	108.7
782.344	109.76
782.742	110.98
783.141	111.79
783.539	112.86
783.937	114.07
784.336	115.86
784.734	117.33
785.132	118.39
785.53	118.91
785.928	119.07
786.326	119.38
786.723	119.46
787.121	118.94
787.519	118.02
787.917	116.98
788.314	116.25
788.712	115.56
789.109	114.37
789.507	113.06
789.904	111.68
790.302	110.83
790.699	109.73
791.096	108.51
791.493	107.51
791.89	107.04
792.287	106.97
792.684	107.06
793.081	107.18
793.478	107.85
793.875	109.16
794.272	110.76
794.669	112.27
795.065	113.79
795.462	115.13
795.858	116.64
796.255	117.81
796.651	118.52
797.048	118.82
797.444	118.93
797.84	118.96
798.237	119
798.633	119
799.029	118.43
799.425	117.24
799.821	115.99
800.217	114.84
800.613	113.55
801.008	112.04
801.404	110.42
801.8	109.34
802.196	108.45
802.591	107.92
802.987	107.26
803.382	106.78
803.778	106.67
804.173	106.76
804.568	107.05
804.963	107.32
805.359	107.88
805.754	108.76
806.149	109.92
806.544	111.38
806.939	112.76
807.334	114.36
807.729	116.15
808.123	117.38
808.518	117.95
808.913	117.93
809.307	117.65
809.702	117.64
810.096	117.5
810.491	117.12
810.885	116.59
811.28	116.11
811.674	115.28
812.068	114.17
812.462	113.01
812.856	111.56
813.251	109.93
813.645	108.32
814.038	106.94
814.432	105.98
814.826	105.15
815.22	104.37
815.614	104.06
816.007	104.15
816.401	104.64
816.794	105.16
817.188	106.15
817.581	107.24
817.975	108
818.368	109.16
818.761	110.67
819.154	112.42
819.548	113.91
819.941	114.8
820.334	115.66
820.727	116.4
821.12	117.11
821.512	117.42
821.905	117.29
822.298	116.95
822.691	116.9
823.083	116.47
823.476	115.72
823.868	114.72
824.261	113.84
824.653	112.67
825.045	111.07
825.438	108.98
825.83	107.02
826.222	105.1
826.614	103.52
827.006	102.37
827.398	101.99
827.79	102.21
828.182	102.88
828.574	103.89
828.966	104.71
829.357	106
829.749	107.1
830.14	108.08
830.532	108.94
830.923	109.93
831.315	110.96
831.706	111.98
832.097	112.96
832.489	113.76
832.88	114.32
833.271	115.05
833.662	116.03
834.053	117.01
834.444	117.51
834.835	117.46
835.226	117.01
835.616	116.19
836.007	115.43
836.398	114.05
836.788	112.54
837.179	111.23
837.569	110.17
837.96	109.03
838.35	107.66
838.741	106.07
839.131	104.91
839.521	103.81
839.911	102.99
840.301	102.36
840.691	102.06
841.081	102.17
841.471	102.63
841.861	103.32
842.251	104.41
842.64	105.66
843.03	106.86
843.42	107.74
843.809	108.72
844.199	109.88
844.588	110.92
844.977	111.89
845.367	112.71
845.756	114.2
846.145	115.94
846.534	117.53
846.923	118.57
847.312	118.71
847.701	118.53
848.09	117.81
848.479	116.56
848.868	115.37
849.257	114.29
849.645	113.09
850.034	111.86
850.422	110.42
850.811	109.21
851.199	107.92
851.588	106.4
851.976	104.67
852.364	103.35
852.753	102.55
853.141	101.89
853.529	101.15
853.917	100.81
854.305	101.18
854.693	102.1
855.08	103
855.468	103.74
855.856	104.72
856.244	106.54
856.631	107.94
857.019	109.04
857.406	109.48
857.794	110.22
858.181	111.31
858.568	112.94
858.956	114.13
859.343	114.91
859.73	115.78
860.117	117.11
860.504	117.89
860.891	117.73
861.278	116.53
861.665	115.47
862.052	114.96
862.438	114.84
862.825	113.95
863.212	112.07
863.598	110.44
863.985	109.47
864.371	108.64
864.757	107.27
865.144	105.32
865.53	103.35
865.916	102.45
866.302	102.16
866.688	101.85
867.074	101.41
867.46	101.01
867.846	100.89
868.232	101.37
868.618	102.01
869.004	102.79
869.389	103.71
869.775	104.62
870.16	106
870.546	108.06
870.931	110.41
871.317	112.19
871.702	113.12
872.087	113.37
872.472	113.48
872.857	113.47
873.242	112.9
873.627	112.32
874.012	112.06
874.397	112.59
874.782	113.62
875.167	114.55
875.552	114.77
875.936	114.71
876.321	114.09
876.705	113.22
877.09	111.84
877.474	109.99
877.858	108.03
878.243	106.56
878.627	105.09
879.011	103.82
879.395	102.21
879.779	100.71
880.163	99.9
880.547	99.55
880.931	99.33
881.315	99.35
881.699	99.41
882.082	100.01
882.466	100.75
882.849	101.39
883.233	101.86
883.616	102.46
884	103.24
884.383	104.5
884.766	105.55
885.15	106.89
885.533	108.11
885.916	110.21
886.299	112.12
886.682	113.69
887.065	114.45
887.448	114.64
887.83	114.46
888.213	114.64
888.596	114.1
888.978	113.75
889.361	112.99
889.743	112.76
890.126	112.37
890.508	112.15
890.89	111.91
891.273	111.41
891.655	110.23
892.037	108.84
892.419	107.56
892.801	106.53
893.183	105.09
893.565	103.51
893.947	101.89
894.328	100.98
894.71	100.65
895.092	100.4
895.473	100.06
895.855	99.82
896.236	99.51
896.618	99.79
896.999	100.58
897.38	101.47
897.761	102.7
898.143	103.77
898.524	104.81
898.905	106.12
899.286	107.54
899.666	108.54
900.047	109.45
900.428	110.23
900.809	111.11
901.19	111.93
901.57	112.88
901.951	113.16
902.331	113.38
902.712	113.31
903.092	113.29
903.472	113.25
903.852	112.89
904.233	112.01
904.613	111.52
904.993	110.73
905.373	110.09
905.753	109.17
906.133	108.02
906.512	106.9
906.892	105.57
907.272	104.43
907.651	103.33
908.031	102.29
908.41	101.23
908.79	99.93
909.169	98.67
909.549	97.66
909.928	97.31
910.307	97.22
910.686	97.44
911.065	97.37
911.444	97.65
911.823	98.8
912.202	100.14
912.581	100.96
912.96	101.72
913.338	102.4
913.717	103.99
914.096	105.86
914.474	107.35
914.853	108.03
915.231	108.79
915.609	109.42
915.988	110.12
916.366	111.06
916.744	111.64
917.122	112.05
917.5	112.95
917.878	113.96
918.256	114.98
918.634	115.78
919.012	115.74
919.389	115.81
919.767	115.29
920.145	114.47
920.522	113.93
920.9	112.91
921.277	111.73
921.654	110.64
922.032	109.24
922.409	107.92
922.786	106.33
923.163	104.28
923.54	102.76
923.917	101.47
924.294	100.26
924.671	98.8
925.048	97.81
925.425	97.6
925.801	97.64
926.178	97.44
926.554	96.95
926.931	96.99
927.307	98.05
927.684	99.14
928.06	100.09
928.436	100.78
928.812	101.58
929.188	102.78
929.565	103.9
929.941	104.93
930.316	105.65
930.692	106.65
931.068	107.11
931.444	107.73
931.82	107.75
932.195	107.7
932.571	107.7
932.946	108.35
933.322	109.51
933.697	110.95
934.072	111.78
934.448	112.59
934.823	112.86
935.198	112.58
935.573	111.6
935.948	109.71
936.323	108.76
936.698	107.9
937.073	107.21
937.447	106.74
937.822	106.55
938.197	106.01
938.571	105.68
938.946	105.07
939.32	104.51
939.694	104.21
940.069	103.71
940.443	102.63
940.817	101.59
941.191	100.56
941.565	99
941.939	98.42
942.313	98.69
942.687	98.78
943.061	98.96
943.435	100.1
943.808	101.26
944.182	101.94
944.556	102.54
944.929	102.98
945.303	102.61
945.676	103.21
946.049	103.65
946.422	104.68
946.796	105.76
947.169	107.39
947.542	108.78
947.915	110.48
948.288	111.23
948.661	112.11
949.033	111.88
949.406	111.93
949.779	111.92
950.151	112.04
950.524	111.19
950.897	111.06
951.269	110.78
951.641	110.9
952.014	110.2
952.386	108.94
952.758	107.91
953.13	107.2
953.502	105.92
953.874	105.36
954.246	104.66
954.618	103.65
954.99	102.17
955.361	100.76
955.733	99.21
956.105	98.38
956.476	97.27
956.848	96.15
957.219	95.11
957.591	94.36
957.962	94.34
958.333	94.9
958.704	95.08
959.075	95.48
959.446	96.72
959.817	97.69
960.188	98.33
960.559	98.93
960.93	99.66
961.301	100.37
961.671	101.58
962.042	102.55
962.412	103.53
962.783	104.6
963.153	105.26
963.524	105.58
963.894	105.63
964.264	106.5
964.634	107.73
965.004	108.96
965.374	109.9
965.744	110.75
966.114	111.35
966.484	111.47
966.854	110.51
967.224	109.42
967.593	108.71
967.963	108.56
968.332	108.02
968.702	108.12
969.071	107.44
969.44	107.29
969.81	107.1
970.179	106.34
970.548	105.65
970.917	104.58
971.286	103.91
971.655	103.82
972.024	103.28
972.393	102.24
972.761	101.52
973.13	99.95
973.499	98.92
973.867	97.37
974.236	95.95
974.604	94.9
974.973	94.38
975.341	94.72
975.709	95.39
976.077	96.09
976.445	96.82
976.813	97.81
977.181	99.49
977.549	100.65
977.917	101
978.285	101.67
978.653	101.96
979.02	102.91
979.388	103.54
979.755	103.33
980.123	103.75
980.49	104.62
980.858	105.8
981.225	106.54
981.592	107.61
981.959	108.71
982.326	110.33
982.693	111.1
983.06	111.58
983.427	111.84
983.794	111.88
984.161	110.96
984.528	110.45
984.894	109.46
985.261	109.63
985.627	109.49
985.994	109.46
986.36	109.55
986.726	110.06
987.093	109.7
987.459	109.11
987.825	108.21
988.191	106.74
988.557	105.61
988.923	104.54
989.289	103.6
989.654	102.91
990.02	101.82
990.386	100.71
990.751	100.35
991.117	99.9
991.482	98.89
991.848	97.67
992.213	96.44
992.578	96.05
992.944	96.46
993.309	96.16
993.674	95.74
994.039	96.01
994.404	96.46
994.769	96.72
995.134	97.21
995.498	97.08
995.863	97.17
996.228	97.52
996.592	99.07
996.957	100.97
997.321	102.99
997.685	104.3
998.05	104.76
998.414	105.17
998.778	105.58
999.142	105.4
999.506	105.54
999.87	104.79
1000.234	105.48
1000.598	106.56
1000.962	107.6
1001.326	108.3
1001.689	108.74
1002.053	109.33
1002.416	110.08
1002.78	109.94
1003.143	109.33
1003.506	109.58
1003.87	109.68
1004.233	109.59
1004.596	108.65
1004.959	107.87
1005.322	108.03
1005.685	107.34
1006.048	105.55
1006.411	104.62
1006.773	103.76
1007.136	103.31
1007.499	102.33
1007.861	101.18
1008.224	100.98
1008.586	100.11
1008.948	99.44
1009.311	98.22
1009.673	97.41
1010.035	96.9
1010.397	96.96
1010.759	96.76
1011.121	96.9
1011.483	96.69
1011.845	96.99
1012.207	96.58
1012.568	96.86
1012.93	96.72
1013.291	97.49
1013.653	97.92
1014.014	97.19
1014.376	97.11
1014.737	97.4
1015.098	97.42
1015.459	98.41
1015.82	99.36
1016.181	100.01
1016.542	101.35
1016.903	103.19
1017.264	104.47
1017.625	106.01
1017.986	106.35
1018.346	106.85
1018.707	106.81
1019.067	107.37
1019.428	107.94
1019.788	107.4
1020.148	108.17
1020.509	108.51
1020.869	108.98
1021.229	110.14
1021.589	109.5
1021.949	109.19
1022.309	108.5
1022.669	107.68
1023.028	107.6
1023.388	108.42
1023.748	108.17
1024.107	108.06
1024.467	108.63
1024.826	109.14
1025.186	108.75
1025.545	108.57
1025.904	106.87
1026.263	104.82
1026.623	103.42
1026.982	102.75
1027.341	100.87
1027.699	99.49
1028.058	97.84
1028.417	96.66
1028.776	96.44
1029.134	96.53
1029.493	95.75
1029.852	95.02
1030.21	94.72
1030.568	95.42
1030.927	94.67
1031.285	94.42
1031.643	93.22
1032.001	94.33
1032.359	95.87
1032.717	95.89
1033.075	96.19
1033.433	98.1
1033.791	100.48
1034.148	102.22
1034.506	103.65
1034.864	103.26
1035.221	104.49
1035.579	104.97
1035.936	104.62
1036.293	104.61
1036.651	103.85
1037.008	102.45
